Data from Ab-i1_Reflection_15-01-06-481.txt Node
Date: Tue Aug 16 15:01:06 CEST 2022
User: IDIV
Spectrometer: FLMS14958
Trigger mode: 0
Integration Time (sec): 1.000000E-1
Scans to average: 10
Electric dark correction enabled: true
Nonlinearity correction enabled: true
Boxcar width: 2
XAxis mode: Wavelengths
Number of Pixels in Spectrum: 2048
>>>>>Begin Spectral Data<<<<<
179.491	-26.4
179.869	-95.2
180.247	-16.08
180.625	428.73
181.003	-233.87
181.381	-183.79
181.759	-183.73
182.136	-91.66
182.514	95.39
182.892	-65.07
183.27	-178.06
183.647	-13.88
184.025	132.79
184.403	510.15
184.78	265.19
185.158	85.6
185.536	41.37
185.913	-220.36
186.291	530.58
186.668	-463.37
187.046	-12.92
187.423	63.39
187.801	50.79
188.178	53.95
188.556	43.13
188.933	41.49
189.31	34.53
189.688	40.52
190.065	49.27
190.442	56.63
190.82	49.52
191.197	36.31
191.574	29.83
191.951	19.84
192.329	5.96
192.706	-16.25
193.083	-1.75
193.46	-6.76
193.837	-6.75
194.214	10.8
194.591	24.26
194.968	17.29
195.345	16.37
195.722	21.66
196.099	18.9
196.476	16.94
196.853	24.32
197.23	29.44
197.607	21.9
197.984	19.69
198.36	23.52
198.737	14.26
199.114	17.98
199.491	21.39
199.867	26.95
200.244	20.58
200.621	17
200.997	18.38
201.374	25.22
201.75	20.14
202.127	17.43
202.504	16.89
202.88	27.2
203.257	22.26
203.633	25.52
204.01	33.62
204.386	35.42
204.762	22.27
205.139	22.21
205.515	17.31
205.891	13.81
206.268	12.11
206.644	15.25
207.02	10.28
207.396	10.3
207.773	7.11
208.149	19.66
208.525	15.66
208.901	17.09
209.277	12.69
209.653	12.6
210.029	-2.33
210.405	4.25
210.781	7.27
211.157	0.28
211.533	-2.7
211.909	10.74
212.285	7.69
212.661	10.39
213.037	17.11
213.413	21.49
213.789	18.18
214.164	18.88
214.54	11.61
214.916	18.28
215.292	21.09
215.667	21.25
216.043	23.35
216.419	21.44
216.794	21
217.17	23.22
217.545	10.81
217.921	5.26
218.296	11.86
218.672	18.72
219.047	19.77
219.423	31.88
219.798	29.29
220.174	36.36
220.549	21.92
220.924	16.89
221.3	15.63
221.675	19.21
222.05	3.77
222.425	4.85
222.801	3.22
223.176	8.49
223.551	11.4
223.926	15.82
224.301	11.78
224.676	17.34
225.051	14.16
225.426	13.85
225.801	8.36
226.176	14.31
226.551	8.97
226.926	5.08
227.301	5.51
227.676	6.7
228.051	4.35
228.426	4.66
228.801	4.51
229.175	4.09
229.55	5.18
229.925	4.38
230.3	4.17
230.674	4.1
231.049	3.78
231.424	2.89
231.798	3.88
232.173	2.91
232.547	3.13
232.922	3.96
233.296	3.19
233.671	3.74
234.045	4.7
234.42	4.88
234.794	3.5
235.168	3.09
235.543	3.02
235.917	4.12
236.291	4.06
236.666	4.17
237.04	4.58
237.414	4.5
237.788	3.55
238.162	3.76
238.537	3.23
238.911	2.44
239.285	2.19
239.659	3
240.033	2.33
240.407	2.51
240.781	3.5
241.155	3.83
241.529	2.88
241.903	3.01
242.277	3.02
242.65	2.73
243.024	2.49
243.398	2.67
243.772	2.62
244.146	2.6
244.519	2.53
244.893	2.49
245.267	2.5
245.64	2.68
246.014	2.67
246.387	2.92
246.761	2.65
247.135	2.58
247.508	2.44
247.882	2.53
248.255	2.55
248.628	2.73
249.002	2.68
249.375	2.78
249.749	2.77
250.122	2.78
250.495	2.6
250.868	3
251.242	3.29
251.615	3.46
251.988	3.27
252.361	3.27
252.734	3.02
253.107	3.19
253.481	3.1
253.854	3.02
254.227	3.32
254.6	3.58
254.973	3.14
255.346	2.94
255.718	3.26
256.091	3.54
256.464	3.44
256.837	3.7
257.21	3.52
257.583	3.34
257.955	2.83
258.328	2.82
258.701	2.83
259.074	2.89
259.446	2.82
259.819	2.71
260.191	2.77
260.564	2.66
260.936	2.71
261.309	2.68
261.681	2.86
262.054	2.78
262.426	2.77
262.799	2.78
263.171	3.01
263.543	2.94
263.916	3.2
264.288	3.28
264.66	3.29
265.033	2.88
265.405	2.79
265.777	2.72
266.149	2.67
266.521	2.85
266.893	2.85
267.265	2.62
267.637	2.46
268.009	2.46
268.381	2.3
268.753	2.49
269.125	2.55
269.497	2.7
269.869	2.53
270.241	2.46
270.613	2.38
270.985	2.31
271.356	2.1
271.728	2.22
272.1	2.18
272.471	2.13
272.843	2.06
273.215	2.04
273.586	2.19
273.958	2.07
274.329	1.99
274.701	2.11
275.072	2.42
275.444	2.23
275.815	2.43
276.187	2.45
276.558	2.23
276.929	2.01
277.301	1.89
277.672	1.81
278.043	1.72
278.415	1.94
278.786	1.8
279.157	1.76
279.528	1.62
279.899	1.67
280.27	1.68
280.641	1.68
281.012	1.8
281.383	1.94
281.754	2.12
282.125	2.18
282.496	2.51
282.867	2.63
283.238	2.57
283.609	2.44
283.98	2.46
284.35	2.16
284.721	2.17
285.092	2.37
285.462	2.33
285.833	2.08
286.204	1.88
286.574	1.77
286.945	1.54
287.315	1.55
287.686	1.66
288.056	1.85
288.427	1.96
288.797	1.95
289.168	2.16
289.538	2.07
289.908	2.15
290.279	2.12
290.649	2.23
291.019	2
291.39	2.08
291.76	2.08
292.13	2.14
292.5	2.13
292.87	2.17
293.24	2
293.61	1.84
293.98	1.79
294.35	1.96
294.72	1.98
295.09	2.06
295.46	2.05
295.83	1.96
296.2	1.66
296.57	1.51
296.939	1.82
297.309	1.98
297.679	1.96
298.049	2.12
298.418	2.17
298.788	2.07
299.158	1.8
299.527	1.87
299.897	1.97
300.266	2.12
300.636	2.12
301.005	2.43
301.375	2.25
301.744	2.17
302.113	2.46
302.483	2.31
302.852	2.2
303.221	2.63
303.591	2.56
303.96	2.36
304.329	2.47
304.698	2.41
305.067	2.28
305.436	2.54
305.806	2.69
306.175	2.85
306.544	3.09
306.913	2.9
307.282	2.45
307.65	2.19
308.019	2.03
308.388	1.87
308.757	2
309.126	2.1
309.495	2.07
309.863	2.1
310.232	2.13
310.601	2.23
310.969	2.39
311.338	2.53
311.707	2.59
312.075	2.64
312.444	2.68
312.812	2.57
313.181	2.66
313.549	2.56
313.918	2.49
314.286	2.14
314.654	2.04
315.023	1.73
315.391	1.83
315.759	1.97
316.127	2.15
316.496	2.39
316.864	2.63
317.232	2.58
317.6	2.46
317.968	2.39
318.336	2.43
318.704	2.21
319.072	2.39
319.44	2.37
319.808	2.66
320.176	2.49
320.544	2.51
320.912	2.4
321.28	2.4
321.647	2.04
322.015	2.3
322.383	2.63
322.75	2.54
323.118	2.69
323.486	2.96
323.853	2.68
324.221	2.63
324.588	2.7
324.956	2.49
325.323	2.15
325.691	2.29
326.058	2.17
326.426	1.97
326.793	2.14
327.16	2.32
327.528	2.23
327.895	2.1
328.262	2.17
328.629	2.48
328.996	2.44
329.363	2.45
329.731	2.38
330.098	2.45
330.465	2.02
330.832	2.35
331.199	2.33
331.566	2.37
331.932	2.3
332.299	2.33
332.666	2.02
333.033	1.99
333.4	2.23
333.766	2.45
334.133	2.37
334.5	2.21
334.867	2.15
335.233	1.97
335.6	1.74
335.966	1.79
336.333	2.03
336.699	2.27
337.066	2.33
337.432	2.38
337.799	2.43
338.165	2.4
338.531	2.43
338.898	2.34
339.264	2.15
339.63	2.15
339.996	2.17
340.363	2.11
340.729	2.23
341.095	2.57
341.461	2.55
341.827	2.35
342.193	2.26
342.559	2.39
342.925	2.3
343.291	2.38
343.657	2.73
344.023	2.75
344.388	2.62
344.754	2.71
345.12	2.57
345.486	2.45
345.851	2.43
346.217	2.57
346.583	2.38
346.948	2.39
347.314	2.16
347.679	2.06
348.045	1.96
348.41	2.17
348.776	2.16
349.141	2.35
349.507	2.36
349.872	2.17
350.237	1.79
350.603	1.78
350.968	1.94
351.333	2.04
351.698	2.36
352.063	2.67
352.428	2.77
352.794	2.54
353.159	2.58
353.524	2.32
353.889	2.24
354.254	2.23
354.618	2.44
354.983	2.16
355.348	2.36
355.713	2.34
356.078	2.21
356.443	2.1
356.807	2.24
357.172	2.14
357.537	2.13
357.901	2.23
358.266	2.14
358.63	2.06
358.995	2.12
359.359	2.12
359.724	2.19
360.088	2.33
360.453	2.4
360.817	2.37
361.181	2.37
361.546	2.17
361.91	2.08
362.274	2.1
362.638	2.04
363.003	2
363.367	2.14
363.731	2.27
364.095	2.38
364.459	2.35
364.823	2.5
365.187	2.48
365.551	2.27
365.915	2.17
366.279	2.26
366.642	2.11
367.006	2.23
367.37	2.4
367.734	2.39
368.097	2.44
368.461	2.45
368.825	2.43
369.188	2.41
369.552	2.52
369.915	2.49
370.279	2.51
370.642	2.47
371.006	2.39
371.369	2.39
371.732	2.49
372.096	2.6
372.459	2.62
372.822	2.68
373.186	2.73
373.549	2.58
373.912	2.53
374.275	2.65
374.638	2.77
375.001	2.6
375.364	2.68
375.727	2.75
376.09	2.78
376.453	2.57
376.816	2.72
377.179	2.61
377.542	2.59
377.904	2.39
378.267	2.41
378.63	2.44
378.993	2.5
379.355	2.56
379.718	2.6
380.08	2.65
380.443	2.48
380.806	2.47
381.168	2.36
381.53	2.47
381.893	2.28
382.255	2.35
382.618	2.37
382.98	2.45
383.342	2.29
383.704	2.58
384.067	2.68
384.429	2.66
384.791	2.66
385.153	2.96
385.515	2.78
385.877	2.79
386.239	2.87
386.601	2.67
386.963	2.51
387.325	2.58
387.687	2.54
388.049	2.44
388.41	2.72
388.772	2.75
389.134	2.76
389.496	2.64
389.857	2.75
390.219	2.69
390.58	2.54
390.942	2.58
391.303	2.67
391.665	2.61
392.026	2.58
392.388	2.64
392.749	2.64
393.111	2.55
393.472	2.56
393.833	2.46
394.194	2.55
394.556	2.63
394.917	2.62
395.278	2.59
395.639	2.72
396	2.63
396.361	2.57
396.722	2.72
397.083	2.79
397.444	2.9
397.805	2.95
398.166	3
398.526	2.96
398.887	3.02
399.248	2.83
399.609	2.77
399.969	2.73
400.33	2.84
400.691	2.71
401.051	2.7
401.412	2.85
401.772	2.85
402.133	2.71
402.493	2.68
402.853	2.86
403.214	2.78
403.574	2.72
403.934	2.78
404.295	2.85
404.655	2.74
405.015	2.8
405.375	2.87
405.735	2.83
406.095	2.81
406.455	2.82
406.815	2.76
407.175	2.74
407.535	2.68
407.895	2.66
408.255	2.59
408.615	2.67
408.975	2.58
409.334	2.64
409.694	2.67
410.054	2.69
410.413	2.59
410.773	2.74
411.133	2.75
411.492	2.74
411.852	2.7
412.211	2.86
412.571	2.78
412.93	2.76
413.289	2.78
413.649	2.88
414.008	2.73
414.367	2.75
414.726	2.89
415.086	2.76
415.445	2.71
415.804	2.75
416.163	2.75
416.522	2.62
416.881	2.69
417.24	2.65
417.599	2.63
417.958	2.56
418.316	2.54
418.675	2.57
419.034	2.62
419.393	2.58
419.751	2.59
420.11	2.54
420.469	2.55
420.827	2.51
421.186	2.5
421.544	2.52
421.903	2.6
422.261	2.55
422.62	2.57
422.978	2.6
423.336	2.51
423.695	2.5
424.053	2.53
424.411	2.54
424.769	2.51
425.128	2.58
425.486	2.55
425.844	2.6
426.202	2.63
426.56	2.73
426.918	2.74
427.276	2.8
427.634	2.74
427.991	2.75
428.349	2.65
428.707	2.59
429.065	2.47
429.423	2.45
429.78	2.4
430.138	2.34
430.495	2.44
430.853	2.52
431.211	2.6
431.568	2.58
431.925	2.64
432.283	2.67
432.64	2.59
432.998	2.47
433.355	2.44
433.712	2.48
434.069	2.38
434.427	2.36
434.784	2.45
435.141	2.51
435.498	2.45
435.855	2.57
436.212	2.68
436.569	2.58
436.926	2.5
437.283	2.54
437.64	2.47
437.996	2.44
438.353	2.47
438.71	2.54
439.067	2.47
439.423	2.52
439.78	2.53
440.137	2.58
440.493	2.58
440.85	2.61
441.206	2.53
441.563	2.49
441.919	2.48
442.275	2.46
442.632	2.49
442.988	2.57
443.344	2.61
443.7	2.57
444.057	2.58
444.413	2.57
444.769	2.52
445.125	2.57
445.481	2.6
445.837	2.59
446.193	2.57
446.549	2.61
446.905	2.57
447.26	2.54
447.616	2.55
447.972	2.58
448.328	2.6
448.683	2.62
449.039	2.62
449.395	2.63
449.75	2.6
450.106	2.53
450.461	2.51
450.817	2.55
451.172	2.53
451.527	2.54
451.883	2.6
452.238	2.69
452.593	2.68
452.949	2.68
453.304	2.68
453.659	2.67
454.014	2.59
454.369	2.54
454.724	2.61
455.079	2.64
455.434	2.63
455.789	2.67
456.144	2.71
456.499	2.66
456.853	2.66
457.208	2.65
457.563	2.61
457.918	2.62
458.272	2.61
458.627	2.58
458.981	2.58
459.336	2.64
459.69	2.63
460.045	2.6
460.399	2.62
460.754	2.67
461.108	2.59
461.462	2.6
461.817	2.69
462.171	2.66
462.525	2.68
462.879	2.82
463.233	2.85
463.587	2.76
463.941	2.81
464.295	2.75
464.649	2.68
465.003	2.63
465.357	2.73
465.711	2.71
466.065	2.72
466.418	2.73
466.772	2.71
467.126	2.7
467.479	2.67
467.833	2.65
468.186	2.63
468.54	2.65
468.893	2.68
469.247	2.64
469.6	2.62
469.954	2.7
470.307	2.67
470.66	2.62
471.013	2.71
471.367	2.75
471.72	2.6
472.073	2.61
472.426	2.59
472.779	2.52
473.132	2.55
473.485	2.69
473.838	2.71
474.191	2.72
474.544	2.78
474.896	2.76
475.249	2.74
475.602	2.8
475.955	2.8
476.307	2.81
476.66	2.84
477.012	2.72
477.365	2.66
477.717	2.72
478.07	2.64
478.422	2.56
478.775	2.66
479.127	2.63
479.479	2.58
479.831	2.68
480.184	2.73
480.536	2.67
480.888	2.7
481.24	2.7
481.592	2.71
481.944	2.7
482.296	2.7
482.648	2.67
483	2.63
483.352	2.56
483.703	2.55
484.055	2.55
484.407	2.55
484.759	2.56
485.11	2.61
485.462	2.63
485.813	2.63
486.165	2.66
486.516	2.67
486.868	2.62
487.219	2.62
487.571	2.64
487.922	2.64
488.273	2.65
488.624	2.68
488.976	2.69
489.327	2.73
489.678	2.79
490.029	2.78
490.38	2.76
490.731	2.73
491.082	2.71
491.433	2.68
491.784	2.71
492.135	2.75
492.485	2.77
492.836	2.75
493.187	2.77
493.537	2.75
493.888	2.74
494.239	2.74
494.589	2.77
494.94	2.78
495.29	2.84
495.641	2.86
495.991	2.9
496.341	2.89
496.692	2.88
497.042	2.86
497.392	2.82
497.742	2.81
498.092	2.79
498.442	2.86
498.793	2.9
499.143	2.97
499.493	3.03
499.842	3.09
500.192	3.07
500.542	3.08
500.892	3.12
501.242	3.04
501.591	3.02
501.941	3.03
502.291	3
502.64	2.95
502.99	2.96
503.339	3.01
503.689	3.06
504.038	3.13
504.388	3.15
504.737	3.2
505.086	3.18
505.436	3.14
505.785	3.13
506.134	3.11
506.483	3.17
506.832	3.19
507.181	3.28
507.53	3.34
507.879	3.36
508.228	3.31
508.577	3.32
508.926	3.3
509.275	3.28
509.624	3.34
509.972	3.38
510.321	3.44
510.67	3.46
511.018	3.46
511.367	3.43
511.715	3.43
512.064	3.44
512.412	3.45
512.761	3.51
513.109	3.53
513.457	3.53
513.806	3.57
514.154	3.59
514.502	3.61
514.85	3.66
515.198	3.69
515.546	3.7
515.894	3.66
516.242	3.67
516.59	3.67
516.938	3.65
517.286	3.64
517.634	3.67
517.981	3.65
518.329	3.68
518.677	3.7
519.024	3.76
519.372	3.8
519.72	3.86
520.067	3.84
520.415	3.9
520.762	3.86
521.109	3.86
521.457	3.89
521.804	3.96
522.151	3.97
522.498	4.02
522.846	4.04
523.193	3.99
523.54	4.01
523.887	3.96
524.234	4.01
524.581	4.03
524.928	3.99
525.275	3.95
525.621	3.93
525.968	3.86
526.315	3.88
526.662	3.9
527.008	3.93
527.355	3.96
527.701	3.93
528.048	3.86
528.394	3.85
528.741	3.83
529.087	3.84
529.434	3.88
529.78	3.92
530.126	3.95
530.472	3.98
530.819	4
531.165	4.02
531.511	4.03
531.857	4.02
532.203	3.99
532.549	4.01
532.895	3.98
533.241	3.98
533.586	3.97
533.932	4.01
534.278	4
534.624	3.99
534.969	4.02
535.315	4.04
535.661	4.02
536.006	4.04
536.352	4.09
536.697	4.06
537.042	4.09
537.388	4.18
537.733	4.23
538.078	4.26
538.424	4.33
538.769	4.39
539.114	4.38
539.459	4.43
539.804	4.53
540.149	4.64
540.494	4.75
540.839	4.8
541.184	4.83
541.529	4.84
541.873	4.88
542.218	4.88
542.563	4.95
542.908	5.01
543.252	5.04
543.597	5.08
543.941	5.15
544.286	5.22
544.63	5.41
544.975	5.84
545.319	6.4
545.663	6.88
546.007	7.13
546.352	7.1
546.696	6.84
547.04	6.38
547.384	5.99
547.728	5.73
548.072	5.59
548.416	5.47
548.76	5.39
549.104	5.31
549.448	5.22
549.791	5.11
550.135	5.05
550.479	4.93
550.823	4.88
551.166	4.82
551.51	4.8
551.853	4.71
552.197	4.66
552.54	4.55
552.883	4.48
553.227	4.41
553.57	4.43
553.913	4.44
554.257	4.38
554.6	4.44
554.943	4.43
555.286	4.34
555.629	4.28
555.972	4.28
556.315	4.17
556.658	4.18
557.001	4.2
557.343	4.24
557.686	4.21
558.029	4.18
558.371	4.17
558.714	4.14
559.057	4.12
559.399	4.21
559.742	4.24
560.084	4.2
560.427	4.18
560.769	4.23
561.111	4.24
561.453	4.27
561.796	4.21
562.138	4.23
562.48	4.1
562.822	4.12
563.164	4.11
563.506	4.15
563.848	4.13
564.19	4.24
564.532	4.13
564.874	4.1
565.215	4.08
565.557	4.01
565.899	3.93
566.24	3.96
566.582	3.93
566.924	3.88
567.265	3.95
567.606	3.96
567.948	4
568.289	4.02
568.631	4.07
568.972	4.08
569.313	4.08
569.654	3.98
569.995	4.02
570.336	4
570.677	3.94
571.018	3.94
571.359	3.9
571.7	3.8
572.041	3.81
572.382	3.82
572.723	3.76
573.064	3.8
573.404	3.85
573.745	3.85
574.085	3.87
574.426	3.88
574.766	3.9
575.107	3.88
575.447	3.93
575.788	4
576.128	4.14
576.468	4.25
576.808	4.3
577.149	4.31
577.489	4.25
577.829	4.23
578.169	4.2
578.509	4.35
578.849	4.51
579.189	4.67
579.529	4.7
579.868	4.68
580.208	4.64
580.548	4.56
580.887	4.48
581.227	4.44
581.567	4.52
581.906	4.43
582.246	4.36
582.585	4.33
582.925	4.23
583.264	4.19
583.603	4.22
583.942	4.23
584.282	4.24
584.621	4.29
584.96	4.21
585.299	4.24
585.638	4.26
585.977	4.33
586.316	4.4
586.655	4.57
586.994	4.5
587.332	4.54
587.671	4.45
588.01	4.41
588.348	4.26
588.687	4.24
589.026	4.11
589.364	3.98
589.703	3.98
590.041	3.92
590.379	3.84
590.718	3.86
591.056	3.83
591.394	3.81
591.732	3.76
592.07	3.85
592.409	3.87
592.747	4.03
593.085	4.07
593.423	4.18
593.76	4.09
594.098	4.11
594.436	4.06
594.774	4.04
595.112	4.03
595.449	4.12
595.787	4.09
596.124	4.01
596.462	3.9
596.799	3.81
597.137	3.79
597.474	3.75
597.812	3.75
598.149	3.79
598.486	3.8
598.823	3.87
599.16	3.92
599.498	3.99
599.835	4.03
600.172	4.14
600.509	4
600.845	3.99
601.182	3.99
601.519	3.95
601.856	3.93
602.193	3.95
602.529	3.95
602.866	3.98
603.202	3.95
603.539	3.83
603.875	3.73
604.212	3.58
604.548	3.51
604.885	3.45
605.221	3.42
605.557	3.42
605.893	3.49
606.23	3.5
606.566	3.53
606.902	3.63
607.238	3.71
607.574	3.81
607.91	3.88
608.245	4
608.581	3.95
608.917	4.04
609.253	4
609.588	4.08
609.924	4.29
610.26	4.75
610.595	5.24
610.931	5.77
611.266	6.21
611.601	6.47
611.937	6.49
612.272	5.98
612.607	5.8
612.942	5.62
613.278	5.45
613.613	5.23
613.948	5.42
614.283	5.32
614.618	5.14
614.953	4.93
615.287	4.83
615.622	4.8
615.957	4.45
616.292	4.17
616.626	3.99
616.961	3.82
617.295	3.68
617.63	3.84
617.964	3.98
618.299	3.95
618.633	3.99
618.968	3.82
619.302	3.78
619.636	3.59
619.97	3.65
620.304	3.58
620.638	3.67
620.972	3.53
621.306	3.69
621.64	3.76
621.974	3.78
622.308	3.77
622.642	3.74
622.976	3.72
623.309	3.67
623.643	3.72
623.977	3.76
624.31	3.79
624.644	3.91
624.977	3.92
625.31	3.75
625.644	3.57
625.977	3.58
626.31	3.37
626.643	3.41
626.977	3.49
627.31	3.55
627.643	3.61
627.976	3.72
628.309	3.65
628.642	3.66
628.974	3.85
629.307	3.83
629.64	3.83
629.973	3.85
630.305	3.97
630.638	3.97
630.971	3.87
631.303	3.84
631.636	3.77
631.968	3.68
632.3	3.53
632.633	3.63
632.965	3.6
633.297	3.57
633.629	3.51
633.961	3.6
634.293	3.52
634.625	3.55
634.957	3.72
635.289	3.72
635.621	3.67
635.953	3.69
636.285	3.56
636.617	3.46
636.948	3.5
637.28	3.5
637.611	3.5
637.943	3.64
638.274	3.58
638.606	3.49
638.937	3.42
639.269	3.33
639.6	3.3
639.931	3.26
640.262	3.32
640.593	3.36
640.924	3.51
641.255	3.47
641.586	3.43
641.917	3.47
642.248	3.44
642.579	3.46
642.91	3.39
643.24	3.41
643.571	3.15
643.902	3.07
644.232	2.97
644.563	2.98
644.893	2.97
645.224	3.22
645.554	3.4
645.884	3.33
646.215	3.32
646.545	3.32
646.875	3.26
647.205	3.25
647.535	3.31
647.865	3.25
648.195	3.38
648.525	3.45
648.855	3.32
649.185	3.25
649.515	3.36
649.844	3.3
650.174	3.24
650.504	3.21
650.833	3.22
651.163	2.99
651.492	3.02
651.822	2.99
652.151	3.15
652.48	3.25
652.81	3.42
653.139	3.38
653.468	3.35
653.797	3.11
654.126	2.95
654.455	2.98
654.784	3.16
655.113	3.29
655.442	3.35
655.771	3.42
656.099	3.24
656.428	3.01
656.757	2.84
657.085	2.88
657.414	2.89
657.742	3
658.071	3.05
658.399	3.1
658.728	3.02
659.056	2.93
659.384	2.9
659.712	2.83
660.04	2.75
660.369	2.89
660.697	3
661.025	3.03
661.353	3.22
661.68	3.33
662.008	3.3
662.336	3.32
662.664	3.36
662.991	3.23
663.319	3.2
663.647	3.27
663.974	3.18
664.302	3.16
664.629	3.13
664.956	3.1
665.284	2.97
665.611	3.07
665.938	3.18
666.265	2.97
666.593	3.15
666.92	3.17
667.247	3.16
667.574	3.11
667.9	3.4
668.227	3.27
668.554	3.32
668.881	3.15
669.208	3.21
669.534	3.2
669.861	3.3
670.187	3.3
670.514	3.46
670.84	3.36
671.167	3.55
671.493	3.63
671.819	3.47
672.146	3.35
672.472	3.6
672.798	3.64
673.124	3.56
673.45	3.91
673.776	4.14
674.102	4.11
674.428	3.89
674.754	3.99
675.079	4.06
675.405	4.1
675.731	4.08
676.056	4.27
676.382	4.31
676.707	4.05
677.033	4.11
677.358	4.08
677.684	4.24
678.009	4.24
678.334	4.62
678.659	4.77
678.985	4.97
679.31	4.83
679.635	4.71
679.96	4.55
680.285	4.2
680.609	4.13
680.934	4.15
681.259	4.12
681.584	4.17
681.908	4.55
682.233	4.51
682.558	4.51
682.882	4.96
683.207	5.13
683.531	5
683.855	5.24
684.18	5.36
684.504	5.16
684.828	4.95
685.152	5.09
685.476	5.22
685.8	5.17
686.124	5.38
686.448	5.53
686.772	5.47
687.096	5.37
687.42	5.36
687.744	4.98
688.067	4.65
688.391	4.43
688.714	4.36
689.038	4.55
689.361	5
689.685	5.12
690.008	5.32
690.331	5.29
690.655	5.06
690.978	4.76
691.301	4.73
691.624	4.76
691.947	4.53
692.27	4.4
692.593	4.38
692.916	4.79
693.239	4.98
693.561	5.27
693.884	5.68
694.207	5.87
694.529	5.68
694.852	5.43
695.174	5.64
695.497	5.6
695.819	5.57
696.142	5.22
696.464	5.36
696.786	5.07
697.108	5.05
697.43	5.22
697.753	5.38
698.075	5.29
698.397	5.21
698.718	5.13
699.04	4.95
699.362	4.93
699.684	4.76
700.006	4.77
700.327	4.64
700.649	4.64
700.97	4.72
701.292	4.77
701.613	4.84
701.935	4.79
702.256	4.83
702.577	4.69
702.898	5.17
703.22	5.18
703.541	5.44
703.862	5.49
704.183	5.67
704.504	5.47
704.825	5.48
705.145	5.46
705.466	5.72
705.787	5.91
706.108	6.1
706.428	6.1
706.749	6.17
707.069	6.12
707.39	6.09
707.71	5.96
708.03	6
708.351	6.54
708.671	6.27
708.991	6.1
709.311	6.21
709.631	6.32
709.951	5.98
710.271	5.83
710.591	6.01
710.911	5.88
711.231	6
711.551	5.7
711.87	6.08
712.19	5.98
712.51	6.09
712.829	6.03
713.149	6.24
713.468	6.11
713.787	6
714.107	6.06
714.426	5.69
714.745	5.62
715.064	5.54
715.383	5.56
715.702	5.77
716.021	6.08
716.34	6.01
716.659	6
716.978	6.11
717.297	5.63
717.615	5.62
717.934	5.82
718.253	5.7
718.571	5.48
718.89	5.2
719.208	5.08
719.527	5.05
719.845	5.2
720.163	5.17
720.481	5.87
720.8	6.13
721.118	5.64
721.436	5.67
721.754	5.69
722.072	5.25
722.39	4.46
722.707	4.67
723.025	4.6
723.343	4.57
723.661	4.93
723.978	5.4
724.296	5.56
724.613	5.43
724.931	5.9
725.248	5.93
725.565	6.12
725.883	6.17
726.2	6.4
726.517	6.19
726.834	5.91
727.151	5.58
727.468	5.52
727.785	5.74
728.102	5.8
728.419	5.9
728.736	5.75
729.052	5.46
729.369	5
729.686	4.98
730.002	4.83
730.319	5
730.635	5.29
730.951	5.63
731.268	5.58
731.584	5.49
731.9	5.29
732.216	5.05
732.533	4.98
732.849	5.53
733.165	5.52
733.481	5.8
733.796	5.91
734.112	5.65
734.428	4.69
734.744	5.05
735.059	5.2
735.375	5.47
735.691	5.9
736.006	6.28
736.322	6.06
736.637	6.55
736.952	5.98
737.268	5.6
737.583	5.13
737.898	4.85
738.213	4.35
738.528	4.88
738.843	6.02
739.158	6.64
739.473	6.67
739.788	6.59
740.102	6.44
740.417	5.33
740.732	5.45
741.046	5.48
741.361	5.3
741.675	5.35
741.99	5.34
742.304	5.09
742.618	5.43
742.933	5.62
743.247	5.92
743.561	6.36
743.875	6.46
744.189	5.99
744.503	6.41
744.817	5.91
745.131	5.69
745.445	5
745.758	5.16
746.072	4.59
746.386	5.27
746.699	5.87
747.013	6.69
747.326	6.74
747.64	7.01
747.953	6.64
748.266	5.9
748.58	5.27
748.893	5.8
749.206	5.8
749.519	5.49
749.832	5.67
750.145	6.04
750.458	5.94
750.771	5.74
751.083	5.75
751.396	6.09
751.709	6.48
752.021	6.19
752.334	6.3
752.646	6.45
752.959	5.91
753.271	5.74
753.584	5.78
753.896	5.16
754.208	4.83
754.52	4.67
754.832	4.31
755.144	4.11
755.456	5
755.768	5.6
756.08	6.02
756.392	6.29
756.704	6.2
757.015	5.7
757.327	5.34
757.638	5.1
757.95	5.28
758.261	5.52
758.573	5.9
758.884	6.22
759.195	6.14
759.507	5.74
759.818	5.74
760.129	6.05
760.44	5.93
760.751	5.71
761.062	5.61
761.373	5.72
761.684	5.13
761.994	4.77
762.305	5.1
762.616	5.06
762.926	5.29
763.237	4.92
763.547	5.02
763.858	4.89
764.168	5.32
764.478	5.03
764.789	4.95
765.099	5.19
765.409	5.23
765.719	5.41
766.029	4.98
766.339	5.27
766.649	5.37
766.959	5.26
767.269	4.59
767.578	5.28
767.888	6.01
768.198	5.31
768.507	5.82
768.817	6.08
769.126	5.98
769.435	5.75
769.745	6.76
770.054	5.8
770.363	5.84
770.672	6.01
770.981	5.47
771.29	5.56
771.599	6.14
771.908	5.63
772.217	5.26
772.526	5.88
772.835	5.56
773.143	6.3
773.452	6.01
773.76	5.84
774.069	4.84
774.377	4.36
774.686	3.8
774.994	4.25
775.302	5.06
775.611	6.8
775.919	7.61
776.227	7.94
776.535	8.23
776.843	7.84
777.151	6.24
777.459	5.58
777.766	4.17
778.074	3.64
778.382	4.42
778.689	5.62
778.997	5.18
779.304	6.13
779.612	6.85
779.919	6.32
780.227	5.77
780.534	5.68
780.841	5.8
781.148	5.61
781.455	4.13
781.762	4.08
782.069	4.72
782.376	5.79
782.683	3.94
782.99	5.52
783.296	5
783.603	4.51
783.91	4.09
784.216	5.34
784.523	5.64
784.829	5.72
785.136	6.33
785.442	7.45
785.748	8.27
786.054	6.77
786.36	6.9
786.667	7.88
786.973	6.13
787.278	5.58
787.584	7.01
787.89	5.9
788.196	5.59
788.502	6.23
788.807	6.32
789.113	5.3
789.418	6.33
789.724	5.16
790.029	5.63
790.335	6.61
790.64	6.79
790.945	6.54
791.25	7.52
791.556	7.06
791.861	6.07
792.166	7.19
792.471	5.63
792.775	5.12
793.08	5.45
793.385	6.03
793.69	5.33
793.994	6.22
794.299	6.62
794.603	4.92
794.908	4.46
795.212	2.16
795.517	4.06
795.821	4.15
796.125	4.87
796.429	4.19
796.733	6.42
797.037	6.03
797.341	7.32
797.645	7.65
797.949	9.61
798.253	9.47
798.557	9.11
798.86	7.8
799.164	7.9
799.468	7.69
799.771	8.81
800.074	10.46
800.378	9.68
800.681	9.6
800.984	7.82
801.288	6.89
801.591	6.04
801.894	6.05
802.197	4.48
802.5	6.47
802.803	5.49
803.105	5.47
803.408	5.25
803.711	6.87
804.014	5.25
804.316	7.81
804.619	7.41
804.921	7.1
805.224	8.47
805.526	9.19
805.828	7.16
806.13	7.49
806.433	7.9
806.735	5.44
807.037	2.99
807.339	4.29
807.641	2.48
807.942	3.86
808.244	6.26
808.546	7.73
808.848	5.6
809.149	6.1
809.451	6.73
809.752	5.29
810.054	5.7
810.355	7.16
810.656	8.52
810.958	7.27
811.259	7.51
811.56	10.1
811.861	9.72
812.162	8.73
812.463	6.32
812.764	7.08
813.065	4.87
813.365	3.87
813.666	1.43
813.967	2.44
814.267	-1.37
814.568	-2.29
814.868	-1.47
815.169	0.62
815.469	1.92
815.769	5.39
816.069	7.65
816.37	7.78
816.67	6.27
816.97	3.5
817.27	0.99
817.57	0.44
817.869	-0.4
818.169	3.07
818.469	5.88
818.768	6.47
819.068	4.75
819.368	4.57
819.667	3.56
819.966	3.73
820.266	5.97
820.565	7.5
820.864	8.53
821.163	7.87
821.463	7.44
821.762	6.58
822.06	5.12
822.359	4.2
822.658	4.72
822.957	4.64
823.256	4.52
823.554	4.37
823.853	4.45
824.152	4.55
824.45	4.93
824.748	5.18
825.047	5.55
825.345	6.16
825.643	6.38
825.941	6.4
826.239	6.43
826.538	6.86
826.836	6.45
827.133	6.6
827.431	6.77
827.729	6.32
828.027	5.81
828.324	5.08
828.622	4.01
828.92	3.29
829.217	3.62
829.514	4.63
829.812	5.34
830.109	6.49
830.406	7.13
830.703	6.6
831.001	1.92
831.298	2.83
831.595	2.97
831.891	4.46
832.188	7.22
832.485	14.53
832.782	14.38
833.078	13.63
833.375	10.45
833.672	8.59
833.968	5.73
834.264	5.46
834.561	4.59
834.857	6.48
835.153	5.65
835.449	5.08
835.746	3.97
836.042	4.63
836.338	3.51
836.633	4.13
836.929	3.89
837.225	5.26
837.521	7.04
837.816	9.97
838.112	11.48
838.408	12.36
838.703	13.32
838.998	12.3
839.294	10.88
839.589	7.88
839.884	10.66
840.179	5.63
840.474	2.38
840.77	-2.84
841.064	-0.15
841.359	-0.34
841.654	4.03
841.949	1.91
842.244	2.82
842.538	1.37
842.833	-0.6
843.127	-0.35
843.422	2.49
843.716	3.66
844.011	5.95
844.305	11.14
844.599	12.96
844.893	17.59
845.187	23.11
845.481	17.89
845.775	18.59
846.069	9.9
846.363	9.74
846.657	6.55
846.95	15.13
847.244	15.73
847.537	21.72
847.831	20.43
848.124	20.03
848.418	18.54
848.711	0.14
849.004	6.86
849.297	-0.05
849.591	-9.17
849.884	-13.44
850.177	9.3
850.47	10.71
850.762	12.66
851.055	12.85
851.348	14.27
851.641	-10.77
851.933	-38.5
852.226	-32.07
852.518	-19.86
852.811	-19.91
853.103	-18.22
853.395	-4.76
853.687	-0.07
853.98	4.03
854.272	-7.8
854.564	17.85
854.856	18.77
855.148	11.69
855.439	8.91
855.731	15.23
856.023	6.19
856.314	1.65
856.606	3.19
856.898	1.72
857.189	17.13
857.48	29.03
857.772	51.33
858.063	54.44
858.354	47.06
858.645	48.1
858.936	57.84
859.227	43.49
859.518	37.33
859.809	45.35
860.1	41.54
860.391	30.61
860.681	30.14
860.972	39.05
861.262	30.46
861.553	58.05
861.843	65.8
862.134	76.79
862.424	58.96
862.714	42.6
863.004	21.66
863.294	10.1
863.584	17.97
863.874	29.56
864.164	44.71
864.454	57.65
864.744	67.74
865.034	86.43
865.323	70.76
865.613	65.51
865.902	58.9
866.192	44.55
866.481	-24.56
866.77	8.85
867.06	15.03
867.349	3.64
867.638	22.73
867.927	27.77
868.216	7.78
868.505	-18.12
868.794	42.44
869.082	31.81
869.371	46.81
869.66	63.7
869.948	73.69
870.237	44.51
870.525	59.34
870.814	49.34
871.102	44.79
871.39	21.47
871.678	50.61
871.967	49.99
872.255	74.06
872.543	78.04
872.831	77.14
873.118	75.22
873.406	66.69
873.694	61.45
873.982	11.95
874.269	-5.77
874.557	-11.55
874.844	-27.22
875.132	-50.7
875.419	-5.74
