Data from Ab-i3_Reflection_15-01-56-475.txt Node
Date: Tue Aug 16 15:01:56 CEST 2022
User: IDIV
Spectrometer: FLMS14958
Trigger mode: 0
Integration Time (sec): 1.000000E-1
Scans to average: 10
Electric dark correction enabled: true
Nonlinearity correction enabled: true
Boxcar width: 2
XAxis mode: Wavelengths
Number of Pixels in Spectrum: 2048
>>>>>Begin Spectral Data<<<<<
179.491	-10.91
179.869	122.35
180.247	91.66
180.625	727.01
181.003	-98.07
181.381	-76.67
181.759	-0.64
182.136	52.24
182.514	-15.93
182.892	71.16
183.27	0.69
183.647	43.69
184.025	180.07
184.403	981.57
184.78	267.01
185.158	55.01
185.536	-55.73
185.913	-78.45
186.291	397.53
186.668	-248.49
187.046	128.96
187.423	50.56
187.801	68.79
188.178	42.21
188.556	34.9
188.933	43.8
189.31	36.26
189.688	31.71
190.065	41.9
190.442	36.28
190.82	18.96
191.197	19.11
191.574	7.72
191.951	5.96
192.329	0.91
192.706	-3.74
193.083	-8.62
193.46	-6.51
193.837	2.12
194.214	22.81
194.591	30.58
194.968	33.81
195.345	35.69
195.722	31.72
196.099	17.63
196.476	9.9
196.853	21.39
197.23	23.73
197.607	24.77
197.984	34.56
198.36	30.8
198.737	13
199.114	5.48
199.491	7.69
199.867	13.07
200.244	22.92
200.621	22.05
200.997	29.02
201.374	23.64
201.75	19.6
202.127	14.48
202.504	19
202.88	31.74
203.257	25.07
203.633	17.72
204.01	17.7
204.386	18.68
204.762	7.51
205.139	14.95
205.515	16.56
205.891	15.86
206.268	9.09
206.644	-1.9
207.02	-1.69
207.396	7.89
207.773	-0.46
208.149	11.5
208.525	21.74
208.901	19.03
209.277	10.88
209.653	22.97
210.029	19.41
210.405	16.49
210.781	26.41
211.157	18.79
211.533	18.56
211.909	28.85
212.285	29.47
212.661	22.71
213.037	28.9
213.413	20.14
213.789	12.13
214.164	22.33
214.54	17.4
214.916	19.5
215.292	23.03
215.667	26.24
216.043	18.54
216.419	18.24
216.794	19.77
217.17	18.97
217.545	10.97
217.921	9.52
218.296	17.39
218.672	16.9
219.047	19.14
219.423	22.19
219.798	24.73
220.174	23.92
220.549	18.97
220.924	18.21
221.3	22.09
221.675	21.28
222.05	6.98
222.425	10.95
222.801	12.6
223.176	8.2
223.551	10.6
223.926	19.11
224.301	16.74
224.676	16.98
225.051	17.32
225.426	16.16
225.801	8.23
226.176	8.31
226.551	9.77
226.926	7.1
227.301	5.81
227.676	11.11
228.051	9.57
228.426	6.6
228.801	6.95
229.175	6.54
229.55	6.54
229.925	6.14
230.3	6.26
230.674	5.6
231.049	6
231.424	4.37
231.798	4.96
232.173	3.79
232.547	3.98
232.922	3.95
233.296	4.65
233.671	5.87
234.045	7.45
234.42	7.48
234.794	6.51
235.168	7.04
235.543	6.2
235.917	6.84
236.291	7.04
236.666	6.82
237.04	5.81
237.414	5.37
237.788	5.04
238.162	4.79
238.537	3.76
238.911	3.71
239.285	3.52
239.659	4.16
240.033	4.09
240.407	5.15
240.781	6.11
241.155	5.97
241.529	4.79
241.903	4.56
242.277	4.62
242.65	4.34
243.024	4.57
243.398	4.87
243.772	4.94
244.146	4.88
244.519	4.99
244.893	4.99
245.267	4.6
245.64	4.95
246.014	4.98
246.387	4.76
246.761	4.38
247.135	4.68
247.508	4.6
247.882	4.6
248.255	4.75
248.628	4.91
249.002	4.85
249.375	4.93
249.749	5.09
250.122	4.99
250.495	5.03
250.868	5.22
251.242	5
251.615	4.89
251.988	4.8
252.361	4.76
252.734	4.67
253.107	4.89
253.481	4.92
253.854	4.75
254.227	4.88
254.6	4.73
254.973	4.43
255.346	4.06
255.718	4.42
256.091	5.05
256.464	5.08
256.837	5.05
257.21	5.14
257.583	5.19
257.955	4.74
258.328	4.65
258.701	4.88
259.074	4.86
259.446	4.64
259.819	4.35
260.191	4.37
260.564	4.25
260.936	4.32
261.309	4.49
261.681	4.65
262.054	4.74
262.426	4.89
262.799	4.98
263.171	4.8
263.543	4.81
263.916	5.05
264.288	5.09
264.66	4.97
265.033	4.61
265.405	4.8
265.777	4.45
266.149	4.24
266.521	4.23
266.893	4.41
267.265	4.1
267.637	4.04
268.009	4.1
268.381	4.12
268.753	4.15
269.125	4.25
269.497	4.11
269.869	4.13
270.241	3.91
270.613	3.89
270.985	3.9
271.356	4.16
271.728	4.21
272.1	4.21
272.471	4.06
272.843	4.01
273.215	3.95
273.586	3.91
273.958	3.96
274.329	3.99
274.701	4.04
275.072	4.32
275.444	4.14
275.815	4.1
276.187	4.15
276.558	3.9
276.929	3.55
277.301	3.45
277.672	3.45
278.043	3.27
278.415	3.41
278.786	3.34
279.157	3.35
279.528	3.23
279.899	3.23
280.27	3.31
280.641	3.38
281.012	3.57
281.383	3.68
281.754	3.74
282.125	3.71
282.496	3.86
282.867	3.83
283.238	3.69
283.609	3.8
283.98	3.92
284.35	3.69
284.721	3.77
285.092	4.11
285.462	4.03
285.833	3.79
286.204	3.64
286.574	3.5
286.945	3.2
287.315	3.23
287.686	3.3
288.056	3.48
288.427	3.81
288.797	3.66
289.168	3.58
289.538	3.63
289.908	3.68
290.279	3.49
290.649	3.76
291.019	3.72
291.39	3.75
291.76	3.85
292.13	3.94
292.5	3.99
292.87	4
293.24	3.79
293.61	3.61
293.98	3.45
294.35	3.5
294.72	3.62
295.09	3.77
295.46	3.74
295.83	3.78
296.2	3.67
296.57	3.55
296.939	3.75
297.309	3.83
297.679	3.8
298.049	3.75
298.418	3.77
298.788	3.56
299.158	3.46
299.527	3.47
299.897	3.65
300.266	3.66
300.636	3.88
301.005	3.75
301.375	3.78
301.744	3.88
302.113	4.13
302.483	3.93
302.852	4.19
303.221	4.41
303.591	4.27
303.96	4.2
304.329	4.38
304.698	4.33
305.067	4.05
305.436	4.09
305.806	4.21
306.175	4.06
306.544	4.01
306.913	4.29
307.282	3.87
307.65	3.71
308.019	3.88
308.388	4.2
308.757	3.97
309.126	4.22
309.495	4.2
309.863	4.08
310.232	3.81
310.601	3.82
310.969	3.99
311.338	3.93
311.707	3.95
312.075	4.13
312.444	4.27
312.812	4.12
313.181	4.31
313.549	4.38
313.918	4.23
314.286	4.09
314.654	4
315.023	3.68
315.391	3.81
315.759	3.76
316.127	4.02
316.496	4.45
316.864	4.7
317.232	4.77
317.6	4.76
317.968	4.44
318.336	4.26
318.704	4.14
319.072	4.05
319.44	4.25
319.808	4.61
320.176	4.61
320.544	4.52
320.912	4.37
321.28	4.22
321.647	3.82
322.015	3.87
322.383	4.24
322.75	4.13
323.118	4.18
323.486	4.51
323.853	4.39
324.221	4.12
324.588	4.3
324.956	4.27
325.323	4.02
325.691	3.89
326.058	4
326.426	4.01
326.793	4.05
327.16	4.14
327.528	4.17
327.895	4.17
328.262	3.86
328.629	4.02
328.996	4.03
329.363	3.98
329.731	3.73
330.098	4.07
330.465	3.71
330.832	4.04
331.199	4.13
331.566	4.38
331.932	4.21
332.299	4.32
332.666	4.06
333.033	3.87
333.4	3.96
333.766	4.09
334.133	4.03
334.5	4
334.867	3.94
335.233	3.68
335.6	3.37
335.966	3.37
336.333	3.27
336.699	3.47
337.066	3.62
337.432	3.92
337.799	4.1
338.165	4.08
338.531	4.05
338.898	3.92
339.264	3.67
339.63	3.59
339.996	3.71
340.363	3.89
340.729	3.89
341.095	4.25
341.461	4.05
341.827	4.03
342.193	3.98
342.559	4.18
342.925	4.24
343.291	4.4
343.657	4.44
344.023	4.17
344.388	4.09
344.754	4.07
345.12	4.37
345.486	4.33
345.851	4.44
346.217	4.52
346.583	4.38
346.948	4.09
347.314	4
347.679	4.07
348.045	4.04
348.41	4.13
348.776	3.98
349.141	4.18
349.507	4.28
349.872	4.1
350.237	3.85
350.603	3.9
350.968	3.91
351.333	3.84
351.698	4.1
352.063	4.29
352.428	4.49
352.794	4.52
353.159	4.45
353.524	4.33
353.889	4.13
354.254	4.1
354.618	4.07
354.983	4.05
355.348	4.02
355.713	4.23
356.078	4.1
356.443	4.07
356.807	4.18
357.172	4.29
357.537	4.3
357.901	4.4
358.266	4.3
358.63	4.19
358.995	4.19
359.359	4.03
359.724	3.99
360.088	4.22
360.453	4.3
360.817	4.31
361.181	4.3
361.546	4.15
361.91	4
362.274	4.03
362.638	3.95
363.003	3.95
363.367	4.25
363.731	4.36
364.095	4.35
364.459	4.47
364.823	4.62
365.187	4.49
365.551	4.3
365.915	4.32
366.279	4.28
366.642	4.37
367.006	4.45
367.37	4.64
367.734	4.59
368.097	4.7
368.461	4.5
368.825	4.5
369.188	4.49
369.552	4.54
369.915	4.48
370.279	4.57
370.642	4.57
371.006	4.52
371.369	4.57
371.732	4.71
372.096	4.79
372.459	4.64
372.822	4.81
373.186	4.84
373.549	4.62
373.912	4.56
374.275	4.81
374.638	4.79
375.001	4.62
375.364	4.68
375.727	4.72
376.09	4.68
376.453	4.57
376.816	4.81
377.179	4.93
377.542	4.99
377.904	4.92
378.267	4.94
378.63	4.88
378.993	4.8
379.355	4.56
379.718	4.56
380.08	4.61
380.443	4.65
380.806	4.69
381.168	5.03
381.53	5.15
381.893	5.16
382.255	5.11
382.618	5.07
382.98	5.07
383.342	5.07
383.704	5.11
384.067	5.26
384.429	5.37
384.791	5.33
385.153	5.22
385.515	5.14
385.877	5.02
386.239	4.96
386.601	4.82
386.963	4.98
387.325	5.02
387.687	5.01
388.049	5.04
388.41	5.23
388.772	5.17
389.134	5.2
389.496	5.12
389.857	5.15
390.219	5.19
390.58	5.11
390.942	5.13
391.303	5.15
391.665	5.08
392.026	4.98
392.388	5.04
392.749	5.17
393.111	5.29
393.472	5.3
393.833	5.35
394.194	5.43
394.556	5.46
394.917	5.5
395.278	5.62
395.639	5.71
396	5.71
396.361	5.53
396.722	5.47
397.083	5.43
397.444	5.4
397.805	5.3
398.166	5.49
398.526	5.57
398.887	5.5
399.248	5.42
399.609	5.53
399.969	5.53
400.33	5.42
400.691	5.47
401.051	5.36
401.412	5.43
401.772	5.33
402.133	5.39
402.493	5.4
402.853	5.64
403.214	5.59
403.574	5.71
403.934	5.86
404.295	5.9
404.655	5.83
405.015	5.88
405.375	5.72
405.735	5.59
406.095	5.6
406.455	5.65
406.815	5.62
407.175	5.77
407.535	5.76
407.895	5.74
408.255	5.64
408.615	5.62
408.975	5.51
409.334	5.53
409.694	5.6
410.054	5.58
410.413	5.48
410.773	5.55
411.133	5.55
411.492	5.43
411.852	5.46
412.211	5.55
412.571	5.5
412.93	5.57
413.289	5.63
413.649	5.65
414.008	5.66
414.367	5.65
414.726	5.65
415.086	5.52
415.445	5.45
415.804	5.43
416.163	5.44
416.522	5.33
416.881	5.33
417.24	5.33
417.599	5.25
417.958	5.2
418.316	5.3
418.675	5.36
419.034	5.41
419.393	5.42
419.751	5.44
420.11	5.38
420.469	5.37
420.827	5.36
421.186	5.35
421.544	5.35
421.903	5.35
422.261	5.38
422.62	5.35
422.978	5.37
423.336	5.34
423.695	5.36
424.053	5.34
424.411	5.4
424.769	5.4
425.128	5.39
425.486	5.35
425.844	5.38
426.202	5.35
426.56	5.37
426.918	5.38
427.276	5.37
427.634	5.31
427.991	5.32
428.349	5.22
428.707	5.24
429.065	5.24
429.423	5.26
429.78	5.28
430.138	5.3
430.495	5.28
430.853	5.29
431.211	5.29
431.568	5.23
431.925	5.31
432.283	5.36
432.64	5.35
432.998	5.39
433.355	5.35
433.712	5.4
434.069	5.37
434.427	5.47
434.784	5.61
435.141	5.82
435.498	5.84
435.855	6.01
436.212	6.04
436.569	5.93
436.926	5.76
437.283	5.7
437.64	5.49
437.996	5.39
438.353	5.38
438.71	5.37
439.067	5.32
439.423	5.43
439.78	5.42
440.137	5.36
440.493	5.36
440.85	5.36
441.206	5.34
441.563	5.33
441.919	5.36
442.275	5.4
442.632	5.44
442.988	5.42
443.344	5.44
443.7	5.41
444.057	5.4
444.413	5.39
444.769	5.43
445.125	5.48
445.481	5.47
445.837	5.44
446.193	5.47
446.549	5.42
446.905	5.41
447.26	5.42
447.616	5.46
447.972	5.46
448.328	5.52
448.683	5.55
449.039	5.59
449.395	5.58
449.75	5.6
450.106	5.62
450.461	5.55
450.817	5.57
451.172	5.5
451.527	5.43
451.883	5.48
452.238	5.57
452.593	5.57
452.949	5.63
453.304	5.66
453.659	5.61
454.014	5.56
454.369	5.67
454.724	5.75
455.079	5.78
455.434	5.79
455.789	5.83
456.144	5.74
456.499	5.67
456.853	5.72
457.208	5.66
457.563	5.71
457.918	5.7
458.272	5.75
458.627	5.69
458.981	5.63
459.336	5.62
459.69	5.6
460.045	5.58
460.399	5.64
460.754	5.7
461.108	5.66
461.462	5.71
461.817	5.76
462.171	5.78
462.525	5.78
462.879	5.83
463.233	5.82
463.587	5.76
463.941	5.73
464.295	5.68
464.649	5.63
465.003	5.67
465.357	5.66
465.711	5.63
466.065	5.66
466.418	5.6
466.772	5.55
467.126	5.56
467.479	5.59
467.833	5.65
468.186	5.66
468.54	5.56
468.893	5.58
469.247	5.58
469.6	5.55
469.954	5.67
470.307	5.75
470.66	5.72
471.013	5.76
471.367	5.77
471.72	5.68
472.073	5.71
472.426	5.71
472.779	5.6
473.132	5.56
473.485	5.62
473.838	5.67
474.191	5.66
474.544	5.74
474.896	5.77
475.249	5.83
475.602	5.8
475.955	5.84
476.307	5.87
476.66	5.89
477.012	5.76
477.365	5.67
477.717	5.61
478.07	5.56
478.422	5.47
478.775	5.52
479.127	5.6
479.479	5.67
479.831	5.76
480.184	5.87
480.536	5.88
480.888	5.83
481.24	5.81
481.592	5.79
481.944	5.65
482.296	5.65
482.648	5.64
483	5.62
483.352	5.59
483.703	5.63
484.055	5.6
484.407	5.63
484.759	5.66
485.11	5.71
485.462	5.74
485.813	5.79
486.165	5.8
486.516	5.79
486.868	5.74
487.219	5.76
487.571	5.78
487.922	5.78
488.273	5.81
488.624	5.86
488.976	5.88
489.327	5.92
489.678	5.97
490.029	5.97
490.38	5.95
490.731	5.96
491.082	5.96
491.433	5.94
491.784	5.95
492.135	6
492.485	6.02
492.836	6.02
493.187	6.05
493.537	6.06
493.888	6.06
494.239	6.07
494.589	6.13
494.94	6.16
495.29	6.22
495.641	6.23
495.991	6.21
496.341	6.19
496.692	6.21
497.042	6.16
497.392	6.15
497.742	6.2
498.092	6.26
498.442	6.3
498.793	6.31
499.143	6.4
499.493	6.46
499.842	6.49
500.192	6.55
500.542	6.59
500.892	6.54
501.242	6.55
501.591	6.54
501.941	6.53
502.291	6.59
502.64	6.65
502.99	6.62
503.339	6.6
503.689	6.64
504.038	6.68
504.388	6.69
504.737	6.75
505.086	6.81
505.436	6.81
505.785	6.82
506.134	6.84
506.483	6.88
506.832	6.9
507.181	7
507.53	7.07
507.879	7.1
508.228	7.09
508.577	7.12
508.926	7.1
509.275	7.13
509.624	7.18
509.972	7.18
510.321	7.19
510.67	7.22
511.018	7.23
511.367	7.22
511.715	7.34
512.064	7.4
512.412	7.45
512.761	7.52
513.109	7.58
513.457	7.58
513.806	7.64
514.154	7.62
514.502	7.62
514.85	7.68
515.198	7.66
515.546	7.63
515.894	7.67
516.242	7.68
516.59	7.69
516.938	7.76
517.286	7.8
517.634	7.85
517.981	7.84
518.329	7.83
518.677	7.83
519.024	7.85
519.372	7.86
519.72	7.94
520.067	7.94
520.415	7.97
520.762	8.03
521.109	8.07
521.457	8.07
521.804	8.15
522.151	8.18
522.498	8.14
522.846	8.17
523.193	8.16
523.54	8.18
523.887	8.16
524.234	8.24
524.581	8.25
524.928	8.28
525.275	8.27
525.621	8.29
525.968	8.29
526.315	8.3
526.662	8.31
527.008	8.33
527.355	8.33
527.701	8.27
528.048	8.27
528.394	8.29
528.741	8.29
529.087	8.33
529.434	8.38
529.78	8.42
530.126	8.43
530.472	8.46
530.819	8.41
531.165	8.44
531.511	8.43
531.857	8.4
532.203	8.4
532.549	8.46
532.895	8.41
533.241	8.44
533.586	8.48
533.932	8.5
534.278	8.53
534.624	8.55
534.969	8.55
535.315	8.58
535.661	8.59
536.006	8.57
536.352	8.59
536.697	8.57
537.042	8.57
537.388	8.61
537.733	8.66
538.078	8.72
538.424	8.78
538.769	8.83
539.114	8.87
539.459	9.02
539.804	9.1
540.149	9.27
540.494	9.42
540.839	9.53
541.184	9.55
541.529	9.61
541.873	9.63
542.218	9.69
542.563	9.73
542.908	9.76
543.252	9.8
543.597	9.84
543.941	9.9
544.286	10
544.63	10.29
544.975	10.82
545.319	11.62
545.663	12.27
546.007	12.63
546.352	12.65
546.696	12.36
547.04	11.75
547.384	11.21
547.728	10.88
548.072	10.63
548.416	10.41
548.76	10.26
549.104	10.05
549.448	9.93
549.791	9.79
550.135	9.66
550.479	9.56
550.823	9.52
551.166	9.45
551.51	9.38
551.853	9.34
552.197	9.26
552.54	9.12
552.883	9.04
553.227	9.01
553.57	8.97
553.913	8.9
554.257	8.87
554.6	8.8
554.943	8.76
555.286	8.78
555.629	8.81
555.972	8.83
556.315	8.86
556.658	8.88
557.001	8.83
557.343	8.77
557.686	8.73
558.029	8.66
558.371	8.62
558.714	8.54
559.057	8.57
559.399	8.58
559.742	8.49
560.084	8.45
560.427	8.44
560.769	8.45
561.111	8.51
561.453	8.59
561.796	8.54
562.138	8.54
562.48	8.49
562.822	8.51
563.164	8.51
563.506	8.57
563.848	8.59
564.19	8.65
564.532	8.6
564.874	8.6
565.215	8.51
565.557	8.45
565.899	8.34
566.24	8.33
566.582	8.28
566.924	8.29
567.265	8.29
567.606	8.34
567.948	8.33
568.289	8.32
568.631	8.32
568.972	8.35
569.313	8.37
569.654	8.25
569.995	8.27
570.336	8.2
570.677	8.2
571.018	8.2
571.359	8.25
571.7	8.23
572.041	8.26
572.382	8.17
572.723	8.09
573.064	8.14
573.404	8.13
573.745	8.18
574.085	8.22
574.426	8.24
574.766	8.2
575.107	8.21
575.447	8.23
575.788	8.32
576.128	8.47
576.468	8.65
576.808	8.73
577.149	8.72
577.489	8.69
577.829	8.68
578.169	8.66
578.509	8.8
578.849	8.98
579.189	9.17
579.529	9.18
579.868	9.11
580.208	9
580.548	8.86
580.887	8.71
581.227	8.63
581.567	8.63
581.906	8.7
582.246	8.72
582.585	8.73
582.925	8.66
583.264	8.7
583.603	8.64
583.942	8.6
584.282	8.6
584.621	8.63
584.96	8.58
585.299	8.59
585.638	8.67
585.977	8.73
586.316	8.78
586.655	8.9
586.994	8.88
587.332	8.88
587.671	8.85
588.01	8.88
588.348	8.79
588.687	8.75
589.026	8.63
589.364	8.53
589.703	8.41
590.041	8.37
590.379	8.32
590.718	8.31
591.056	8.27
591.394	8.33
591.732	8.24
592.07	8.26
592.409	8.31
592.747	8.41
593.085	8.46
593.423	8.6
593.76	8.57
594.098	8.5
594.436	8.45
594.774	8.41
595.112	8.36
595.449	8.36
595.787	8.33
596.124	8.24
596.462	8.08
596.799	7.95
597.137	7.92
597.474	7.93
597.812	7.97
598.149	8.03
598.486	8.09
598.823	8.16
599.16	8.22
599.498	8.25
599.835	8.26
600.172	8.29
600.509	8.24
600.845	8.21
601.182	8.15
601.519	8.16
601.856	8.12
602.193	8.11
602.529	8.05
602.866	8.03
603.202	7.96
603.539	7.96
603.875	7.91
604.212	7.78
604.548	7.81
604.885	7.74
605.221	7.68
605.557	7.62
605.893	7.74
606.23	7.66
606.566	7.73
606.902	7.82
607.238	8.01
607.574	8
607.91	8.18
608.245	8.21
608.581	8.14
608.917	8.18
609.253	8.37
609.588	8.54
609.924	8.97
610.26	9.63
610.595	10.41
610.931	11.15
611.266	11.79
611.601	12.22
611.937	12.33
612.272	11.66
612.607	11.27
612.942	11.02
613.278	10.71
613.613	10.43
613.948	10.58
614.283	10.42
614.618	10.09
614.953	9.66
615.287	9.55
615.622	9.39
615.957	9.07
616.292	8.84
616.626	8.7
616.961	8.27
617.295	8.1
617.63	8.18
617.964	8.06
618.299	8.04
618.633	8.13
618.968	8
619.302	7.78
619.636	7.77
619.97	7.75
620.304	7.73
620.638	7.77
620.972	7.86
621.306	7.88
621.64	7.99
621.974	7.97
622.308	7.98
622.642	7.89
622.976	7.89
623.309	7.94
623.643	8.01
623.977	7.96
624.31	8.12
624.644	8.2
624.977	8.05
625.31	7.9
625.644	7.92
625.977	7.79
626.31	7.68
626.643	7.64
626.977	7.73
627.31	7.71
627.643	7.88
627.976	7.88
628.309	7.87
628.642	7.73
628.974	7.85
629.307	7.76
629.64	7.76
629.973	7.87
630.305	8.08
630.638	8.17
630.971	8.19
631.303	8.06
631.636	8.1
631.968	7.96
632.3	7.63
632.633	7.54
632.965	7.69
633.297	7.51
633.629	7.48
633.961	7.6
634.293	7.55
634.625	7.42
634.957	7.43
635.289	7.37
635.621	7.41
635.953	7.35
636.285	7.27
636.617	7.2
636.948	7.19
637.28	7.21
637.611	7.32
637.943	7.47
638.274	7.55
638.606	7.56
638.937	7.41
639.269	7.26
639.6	7.26
639.931	7.25
640.262	7.3
640.593	7.3
640.924	7.31
641.255	7.19
641.586	7.13
641.917	7.04
642.248	6.98
642.579	7.06
642.91	7.06
643.24	7.05
643.571	6.99
643.902	6.95
644.232	6.89
644.563	6.81
644.893	6.92
645.224	7.09
645.554	7.13
645.884	6.98
646.215	6.93
646.545	6.76
646.875	6.63
647.205	6.63
647.535	6.7
647.865	6.79
648.195	6.95
648.525	7
648.855	7
649.185	6.95
649.515	7.11
649.844	6.94
650.174	6.9
650.504	6.88
650.833	6.96
651.163	6.75
651.492	6.73
651.822	6.87
652.151	6.85
652.48	6.83
652.81	6.88
653.139	7.01
653.468	6.94
653.797	6.99
654.126	6.93
654.455	6.9
654.784	6.86
655.113	6.89
655.442	6.84
655.771	6.81
656.099	6.83
656.428	6.72
656.757	6.58
657.085	6.56
657.414	6.69
657.742	6.53
658.071	6.68
658.399	6.73
658.728	6.65
659.056	6.51
659.384	6.58
659.712	6.48
660.04	6.32
660.369	6.41
660.697	6.49
661.025	6.39
661.353	6.45
661.68	6.63
662.008	6.71
662.336	6.58
662.664	6.49
662.991	6.35
663.319	6.16
663.647	6.04
663.974	6
664.302	6.24
664.629	6.29
664.956	6.19
665.284	6.18
665.611	6.32
665.938	6.33
666.265	6.2
666.593	6.43
666.92	6.34
667.247	6.4
667.574	6.51
667.9	6.67
668.227	6.59
668.554	6.8
668.881	6.61
669.208	6.5
669.534	6.54
669.861	6.54
670.187	6.37
670.514	6.55
670.84	6.65
671.167	6.73
671.493	6.7
671.819	6.61
672.146	6.6
672.472	6.58
672.798	6.69
673.124	6.92
673.45	7.13
673.776	7.27
674.102	7.53
674.428	7.25
674.754	7.15
675.079	7.45
675.405	7.41
675.731	7.1
676.056	7.4
676.382	7.44
676.707	7.13
677.033	7.22
677.358	7.39
677.684	7.39
678.009	7.51
678.334	7.9
678.659	8.02
678.985	8.19
679.31	8.22
679.635	8.12
679.96	7.94
680.285	7.83
680.609	7.77
680.934	7.91
681.259	8.03
681.584	7.98
681.908	8.13
682.233	8.16
682.558	7.99
682.882	8.1
683.207	8.36
683.531	8.51
683.855	8.76
684.18	8.97
684.504	9.02
684.828	9
685.152	9
685.476	9.02
685.8	9.08
686.124	9.07
686.448	9.29
686.772	9.31
687.096	9.39
687.42	9.35
687.744	9.52
688.067	9.25
688.391	9.19
688.714	9.14
689.038	9.18
689.361	9.27
689.685	9.47
690.008	9.66
690.331	9.57
690.655	9.61
690.978	9.42
691.301	9.31
691.624	9.13
691.947	9.05
692.27	9.11
692.593	9.27
692.916	9.33
693.239	9.4
693.561	9.67
693.884	9.69
694.207	9.76
694.529	9.91
694.852	9.91
695.174	10.32
695.497	10.55
695.819	10.34
696.142	10.14
696.464	10.17
696.786	9.69
697.108	9.53
697.43	9.68
697.753	9.73
698.075	9.72
698.397	9.77
698.718	9.71
699.04	9.69
699.362	9.75
699.684	9.51
700.006	9.41
700.327	9.37
700.649	9.38
700.97	9.51
701.292	9.7
701.613	9.69
701.935	9.87
702.256	9.76
702.577	9.57
702.898	10.14
703.22	10.21
703.541	10.12
703.862	10.48
704.183	11.03
704.504	10.6
704.825	11
705.145	11.22
705.466	11.21
705.787	10.97
706.108	11.39
706.428	11.45
706.749	11.4
707.069	11.6
707.39	11.39
707.71	11.18
708.03	10.93
708.351	11.39
708.671	11.42
708.991	10.99
709.311	10.81
709.631	10.83
709.951	10.27
710.271	9.73
710.591	10.27
710.911	10.28
711.231	10.35
711.551	10.41
711.87	10.83
712.19	10.8
712.51	11.24
712.829	11.16
713.149	11.23
713.468	11
713.787	10.43
714.107	10.06
714.426	9.98
714.745	9.98
715.064	9.8
715.383	10.14
715.702	10.27
716.021	10.7
716.34	10.41
716.659	10.71
716.978	10.62
717.297	10.33
717.615	10.07
717.934	10.33
718.253	10.05
718.571	10.48
718.89	10.47
719.208	10.34
719.527	10.37
719.845	10.58
720.163	10.26
720.481	10.79
720.8	11.15
721.118	10.89
721.436	10.85
721.754	10.81
722.072	10.7
722.39	10.42
722.707	10.02
723.025	9.8
723.343	9.94
723.661	9.96
723.978	9.77
724.296	10.37
724.613	10.44
724.931	10.29
725.248	10.25
725.565	10.64
725.883	10.96
726.2	11.23
726.517	11.23
726.834	11.07
727.151	10.86
727.468	10.91
727.785	10.55
728.102	10.76
728.419	10.7
728.736	10.37
729.052	10.04
729.369	10.14
729.686	10.18
730.002	10.25
730.319	10.52
730.635	10.51
730.951	10.82
731.268	10.61
731.584	10.61
731.9	10.16
732.216	10.33
732.533	10.3
732.849	10.12
733.165	9.87
733.481	10.52
733.796	10.57
734.112	10.06
734.428	10.23
734.744	10.52
735.059	10.29
735.375	9.95
735.691	10.29
736.006	10.08
736.322	9.83
736.637	10.48
736.952	10.54
737.268	10.59
737.583	10.73
737.898	10.79
738.213	10.13
738.528	10.69
738.843	11.49
739.158	11.44
739.473	11.43
739.788	11.84
740.102	11.39
740.417	10.36
740.732	10.43
741.046	10.19
741.361	9.41
741.675	8.96
741.99	8.9
742.304	9.23
742.618	9.42
742.933	9.77
743.247	10.33
743.561	10.77
743.875	10.38
744.189	10.51
744.503	11.07
744.817	10.82
745.131	10.24
745.445	10.39
745.758	10.34
746.072	9.39
746.386	10.12
746.699	11.03
747.013	11.52
747.326	11.42
747.64	11.54
747.953	11.39
748.266	10.6
748.58	9.9
748.893	9.84
749.206	10.32
749.519	9.55
749.832	10.14
750.145	10.5
750.458	10.67
750.771	10.59
751.083	11.04
751.396	10.65
751.709	10.49
752.021	10.47
752.334	10.39
752.646	10.33
752.959	10.6
753.271	10.77
753.584	10.85
753.896	10.69
754.208	10.6
754.52	10.51
754.832	9.91
755.144	9.9
755.456	9.91
755.768	9.64
756.08	9.87
756.392	10.92
756.704	10.55
757.015	10.72
757.327	10.9
757.638	10.14
757.95	9.74
758.261	10.21
758.573	10.66
758.884	11.12
759.195	10.77
759.507	10.45
759.818	10.65
760.129	10.31
760.44	9.45
760.751	10.16
761.062	10.65
761.373	10.06
761.684	9.83
761.994	10.13
762.305	9.87
762.616	9.29
762.926	9.25
763.237	8.7
763.547	8.6
763.858	8.81
764.168	9
764.478	9.24
764.789	9.32
765.099	10.1
765.409	9.93
765.719	9.98
766.029	10.01
766.339	10.14
766.649	9.22
766.959	9.03
767.269	9.22
767.578	9.19
767.888	9.98
768.198	10.01
768.507	11.08
768.817	10.81
769.126	11.18
769.435	11.2
769.745	11.74
770.054	11.5
770.363	11.81
770.672	10.84
770.981	10.72
771.29	11.02
771.599	10.82
771.908	9.94
772.217	10.49
772.526	10.43
772.835	10.67
773.143	11.49
773.452	12.52
773.76	12.78
774.069	12.28
774.377	10.68
774.686	9.52
774.994	9.09
775.302	9.65
775.611	9.45
775.919	10.18
776.227	10.97
776.535	11.73
776.843	11.23
777.151	11.9
777.459	11.86
777.766	10.63
778.074	9.47
778.382	10.22
778.689	9.99
778.997	10.1
779.304	10.44
779.612	11.26
779.919	10.68
780.227	11.87
780.534	12.04
780.841	11.09
781.148	11.52
781.455	11.4
781.762	10.52
782.069	10.57
782.376	11.09
782.683	9.02
782.99	7.97
783.296	7.76
783.603	7.5
783.91	8.85
784.216	10.67
784.523	11.2
784.829	10.36
785.136	10.32
785.442	11.07
785.748	11.02
786.054	10.71
786.36	12.17
786.667	13.59
786.973	13.04
787.278	12.73
787.584	13.08
787.89	13.08
788.196	13.06
788.502	12.48
788.807	12.89
789.113	13.54
789.418	12.47
789.724	10.89
790.029	11.25
790.335	10.26
790.64	9.21
790.945	9.47
791.25	9.17
791.556	9.51
791.861	8.49
792.166	8.27
792.471	8.32
792.775	10.32
793.08	9.45
793.385	11.82
793.69	11.93
793.994	11.23
794.299	9.74
794.603	9.96
794.908	8.75
795.212	8.26
795.517	9.72
795.821	11.08
796.125	9.7
796.429	9.48
796.733	11.4
797.037	12.25
797.341	11.97
797.645	11.79
797.949	13.27
798.253	13.52
798.557	11.49
798.86	11.33
799.164	11.58
799.468	10.81
799.771	11.62
800.074	12.52
800.378	11.87
800.681	12.75
800.984	12.6
801.288	10.87
801.591	12.28
801.894	12.01
802.197	12.02
802.5	12.78
802.803	11.93
803.105	12.28
803.408	11.66
803.711	12.89
804.014	12.49
804.316	14.72
804.619	12.87
804.921	13.46
805.224	13.05
805.526	11.36
805.828	9.35
806.13	8.38
806.433	9.44
806.735	7.91
807.037	9.58
807.339	10.52
807.641	12.03
807.942	12.15
808.244	13.03
808.546	13.33
808.848	11.97
809.149	12.3
809.451	13.18
809.752	14.61
810.054	14.53
810.355	17.16
810.656	14.99
810.958	13.85
811.259	11.96
811.56	11.69
811.861	10.1
812.162	11.14
812.463	8.42
812.764	10.13
813.065	10.97
813.365	9.11
813.666	6.88
813.967	9.14
814.267	6.6
814.568	4.19
814.868	5.35
815.169	7.89
815.469	10.47
815.769	10.48
816.069	12.33
816.37	12.89
816.67	12.58
816.97	10.43
817.27	9.46
817.57	8.15
817.869	6.48
818.169	8.39
818.469	7.91
818.768	9.07
819.068	9.54
819.368	10.23
819.667	6.6
819.966	7.56
820.266	9.97
820.565	10.13
820.864	10.09
821.163	11.82
821.463	10.7
821.762	10.5
822.06	10.53
822.359	10.68
822.658	10.2
822.957	9.61
823.256	9.12
823.554	8.64
823.853	8.48
824.152	8.77
824.45	9.39
824.748	9.53
825.047	9.9
825.345	10.5
825.643	10.17
825.941	10.01
826.239	9.73
826.538	9.69
826.836	8.57
827.133	8.36
827.431	8.74
827.729	8.65
828.027	8.35
828.324	8.53
828.622	7.75
828.92	7.32
829.217	7.31
829.514	8.29
829.812	8.21
830.109	9.79
830.406	9.44
830.703	9.73
831.001	6.88
831.298	7.41
831.595	6.99
831.891	9.48
832.188	10.53
832.485	15.79
832.782	14.83
833.078	12.37
833.375	9.87
833.672	10.67
833.968	9.91
834.264	9.39
834.561	10.14
834.857	10.43
835.153	9.99
835.449	8.92
835.746	9.5
836.042	10.92
836.338	10.27
836.633	10.64
836.929	11.14
837.225	11.3
837.521	10.27
837.816	11.54
838.112	11.62
838.408	9.71
838.703	11.9
838.998	12.46
839.294	13.02
839.589	12.01
839.884	14.93
840.179	12.35
840.474	10.08
840.77	10.41
841.064	8.43
841.359	12.46
841.654	14.38
841.949	10.62
842.244	7.57
842.538	9.2
842.833	5.42
843.127	3.46
843.422	10.94
843.716	14.18
844.011	9.36
844.305	13.69
844.599	15.33
844.893	10.54
845.187	11.08
845.481	10.35
845.775	9.16
846.069	6.07
846.363	4.89
846.657	-10.37
846.95	6.49
847.244	6.09
847.537	7.44
847.831	6.54
848.124	20.94
848.418	9.13
848.711	7.74
849.004	5.9
849.297	4.59
849.591	6.2
849.884	2.8
850.177	3.65
850.47	13.01
850.762	25.66
851.055	15.55
851.348	25.14
851.641	7.85
851.933	-7.64
852.226	-11.68
852.518	5.21
852.811	3.91
853.103	22.79
853.395	35.79
853.687	48.75
853.98	35.95
854.272	6.66
854.564	10.47
854.856	-11.96
855.148	-30.72
855.439	-10.54
855.731	11.41
856.023	5.93
856.314	17.66
856.606	-6.1
856.898	-11.75
857.189	21.58
857.48	25.9
857.772	48.66
858.063	57.8
858.354	50.78
858.645	50.72
858.936	50.65
859.227	30.36
859.518	34.29
859.809	51.31
860.1	47.68
860.391	63.57
860.681	77.18
860.972	61.25
861.262	46.13
861.553	70.23
861.843	58.43
862.134	54.18
862.424	83.97
862.714	65.08
863.004	36.75
863.294	27.46
863.584	36.84
863.874	28.29
864.164	35.3
864.454	44.2
864.744	64.79
865.034	54.79
865.323	48.54
865.613	56.35
865.902	46.62
866.192	27.32
866.481	30.56
866.77	38.52
867.06	21.9
867.349	30.07
867.638	46.5
867.927	2.88
868.216	24.12
868.505	25.31
868.794	37.07
869.082	37.65
869.371	59.23
869.66	44.07
869.948	51.26
870.237	16.54
870.525	-24.22
870.814	-1.43
871.102	10.55
871.39	11.33
871.678	35.88
871.967	51.83
872.255	66.92
872.543	90.97
872.831	74.95
873.118	77.11
873.406	70.61
873.694	48.01
873.982	3.74
874.269	12.19
874.557	40.47
874.844	38.67
875.132	41.68
875.419	62.25
