Data from Arel-i3_Reflection_16-45-44-273.txt Node
Date: Tue Aug 16 16:45:44 CEST 2022
User: IDIV
Spectrometer: FLMS14958
Trigger mode: 0
Integration Time (sec): 1.000000E-1
Scans to average: 10
Electric dark correction enabled: true
Nonlinearity correction enabled: true
Boxcar width: 2
XAxis mode: Wavelengths
Number of Pixels in Spectrum: 2048
>>>>>Begin Spectral Data<<<<<
179.491	-20.1
179.869	-23.76
180.247	-54.19
180.625	-53.69
181.003	-61
181.381	-179.92
181.759	-6.23
182.136	61.31
182.514	62
182.892	40.78
183.27	-66.37
183.647	-764.57
184.025	-163.35
184.403	169.98
184.78	-28.39
185.158	-53.22
185.536	-31.72
185.913	-80.7
186.291	0.2
186.668	90.56
187.046	309.68
187.423	194.56
187.801	116.39
188.178	86.16
188.556	79.15
188.933	69.38
189.31	54.51
189.688	38.81
190.065	29.56
190.442	16.11
190.82	13.04
191.197	-6.62
191.574	-16.04
191.951	1.85
192.329	-7.32
192.706	8.96
193.083	14.47
193.46	15.06
193.837	4.2
194.214	16.26
194.591	4.66
194.968	27.1
195.345	49.22
195.722	37.41
196.099	20.31
196.476	32.02
196.853	33.73
197.23	32.17
197.607	25.49
197.984	43.14
198.36	32.46
198.737	32
199.114	33.23
199.491	40.35
199.867	36.97
200.244	37.84
200.621	35.37
200.997	28.02
201.374	32.27
201.75	25.91
202.127	29.95
202.504	26.37
202.88	25.42
203.257	8.4
203.633	-2.08
204.01	7.9
204.386	19.77
204.762	27.55
205.139	30.65
205.515	37.47
205.891	44.39
206.268	35.53
206.644	39.76
207.02	41.58
207.396	39.44
207.773	30.86
208.149	22.05
208.525	-3.31
208.901	20.26
209.277	9.59
209.653	10.25
210.029	22.32
210.405	38.71
210.781	38.25
211.157	43.8
211.533	37.62
211.909	32.75
212.285	13.51
212.661	1.21
213.037	19.51
213.413	26.81
213.789	22.67
214.164	19.12
214.54	13.78
214.916	8.03
215.292	17.68
215.667	20.63
216.043	20.75
216.419	-3.42
216.794	-5.27
217.17	-20.7
217.545	-13.35
217.921	-10.45
218.296	20
218.672	19.36
219.047	30.65
219.423	25.44
219.798	25.49
220.174	28.69
220.549	30.16
220.924	14.84
221.3	25.83
221.675	18.51
222.05	11.44
222.425	15.3
222.801	23.9
223.176	12.07
223.551	16.07
223.926	19.76
224.301	19.94
224.676	19.55
225.051	19.37
225.426	20.76
225.801	20.02
226.176	10.99
226.551	4.19
226.926	0.17
227.301	1.98
227.676	2.43
228.051	0.82
228.426	2.72
228.801	5.77
229.175	3.82
229.55	4.91
229.925	5.33
230.3	4.16
230.674	3.15
231.049	3.82
231.424	1.46
231.798	0.65
232.173	2.37
232.547	3.07
232.922	2.13
233.296	2.71
233.671	3.17
234.045	2.08
234.42	1.45
234.794	2.65
235.168	1.27
235.543	2.06
235.917	1.59
236.291	2.41
236.666	1.8
237.04	2.58
237.414	3.63
237.788	3.95
238.162	4.16
238.537	5.2
238.911	5.83
239.285	4.51
239.659	4.93
240.033	3.65
240.407	3.48
240.781	3.01
241.155	3
241.529	2.12
241.903	1.84
242.277	0.9
242.65	0.78
243.024	0.39
243.398	0.54
243.772	0.81
244.146	1
244.519	0.53
244.893	0.46
245.267	0.05
245.64	-0.59
246.014	-0.56
246.387	0.49
246.761	0.47
247.135	0.36
247.508	0.21
247.882	0.2
248.255	0.02
248.628	0.14
249.002	0.31
249.375	0.52
249.749	0.26
250.122	0.52
250.495	0.15
250.868	-0.15
251.242	0.21
251.615	0.35
251.988	0.01
252.361	0.42
252.734	0.77
253.107	0.74
253.481	1.1
253.854	1.29
254.227	1.14
254.6	0.91
254.973	0.45
255.346	0.3
255.718	0.53
256.091	1.29
256.464	1.34
256.837	1.29
257.21	1.49
257.583	0.69
257.955	0.45
258.328	0.86
258.701	1.14
259.074	0.66
259.446	0.97
259.819	0.73
260.191	0.49
260.564	0.43
260.936	0.54
261.309	0.48
261.681	0.6
262.054	0.76
262.426	0.97
262.799	0.93
263.171	0.78
263.543	0.93
263.916	1.07
264.288	0.86
264.66	1.11
265.033	1.17
265.405	0.75
265.777	0.86
266.149	0.92
266.521	0.69
266.893	0.94
267.265	1.02
267.637	0.61
268.009	0.81
268.381	0.93
268.753	0.96
269.125	0.93
269.497	1.05
269.869	0.86
270.241	1.12
270.613	1.12
270.985	1.11
271.356	1.61
271.728	1.62
272.1	1.34
272.471	1.17
272.843	1.27
273.215	0.9
273.586	0.98
273.958	1.06
274.329	1.24
274.701	1.44
275.072	1.56
275.444	1.51
275.815	1.28
276.187	0.74
276.558	0.48
276.929	0.38
277.301	0.13
277.672	0.04
278.043	0.38
278.415	0.28
278.786	0.19
279.157	0.54
279.528	0.78
279.899	0.79
280.27	0.71
280.641	0.57
281.012	0.49
281.383	0.57
281.754	0.27
282.125	0.26
282.496	0.38
282.867	0.28
283.238	0.24
283.609	0.51
283.98	0.63
284.35	0.57
284.721	0.44
285.092	0.55
285.462	0.43
285.833	0.49
286.204	0.86
286.574	1.01
286.945	0.86
287.315	0.83
287.686	0.74
288.056	0.4
288.427	0.4
288.797	0.61
289.168	0.87
289.538	1.03
289.908	1.15
290.279	1.07
290.649	0.82
291.019	0.61
291.39	0.66
291.76	0.49
292.13	0.43
292.5	0.64
292.87	1.01
293.24	0.44
293.61	0.69
293.98	0.64
294.35	0.68
294.72	0.35
295.09	0.52
295.46	0.4
295.83	0.49
296.2	0.54
296.57	0.38
296.939	0.48
297.309	0.52
297.679	0.5
298.049	0.49
298.418	0.6
298.788	0.8
299.158	0.91
299.527	0.9
299.897	0.73
300.266	0.79
300.636	0.8
301.005	0.57
301.375	0.55
301.744	0.51
302.113	0.57
302.483	0.5
302.852	0.76
303.221	1.09
303.591	1.25
303.96	0.96
304.329	0.8
304.698	0.4
305.067	0.03
305.436	-0.37
305.806	0.19
306.175	0.01
306.544	-0.06
306.913	-0.05
307.282	0.74
307.65	0.36
308.019	0.53
308.388	0.67
308.757	0.67
309.126	0.24
309.495	0.29
309.863	0.29
310.232	0.74
310.601	0.93
310.969	0.69
311.338	0.53
311.707	0.47
312.075	0.07
312.444	0.13
312.812	0.56
313.181	0.97
313.549	1.18
313.918	1.19
314.286	0.9
314.654	0.89
315.023	0.47
315.391	0.5
315.759	0.71
316.127	0.97
316.496	1.04
316.864	1.14
317.232	1.05
317.6	0.99
317.968	0.3
318.336	0.13
318.704	0.13
319.072	0.23
319.44	-0.05
319.808	0.71
320.176	0.88
320.544	1.08
320.912	0.97
321.28	1.49
321.647	1.6
322.015	1.58
322.383	1.63
322.75	1.82
323.118	1.63
323.486	1.43
323.853	1.39
324.221	1.19
324.588	0.95
324.956	1.01
325.323	0.76
325.691	0.52
326.058	0.52
326.426	0.7
326.793	0.54
327.16	0.69
327.528	0.6
327.895	0.3
328.262	0.06
328.629	0.4
328.996	0.54
329.363	0.7
329.731	0.97
330.098	1.24
330.465	0.64
330.832	0.54
331.199	0.45
331.566	0.53
331.932	0.53
332.299	0.57
332.666	0.35
333.033	0.46
333.4	0.46
333.766	0.36
334.133	0.45
334.5	0.4
334.867	0.36
335.233	0.67
335.6	0.67
335.966	0.59
336.333	0.97
336.699	1.14
337.066	0.98
337.432	1.17
337.799	1.25
338.165	1.03
338.531	0.65
338.898	0.45
339.264	0.14
339.63	0.12
339.996	0.1
340.363	0.31
340.729	0.35
341.095	0.34
341.461	0.5
341.827	0.29
342.193	0.35
342.559	0.51
342.925	0.51
343.291	0.34
343.657	0.58
344.023	0.37
344.388	0.22
344.754	0.59
345.12	0.62
345.486	0.42
345.851	0.43
346.217	0.4
346.583	-0.13
346.948	0.01
347.314	0.39
347.679	0.69
348.045	0.74
348.41	0.95
348.776	0.72
349.141	0.36
349.507	0.15
349.872	0.09
350.237	0.32
350.603	0.58
350.968	0.82
351.333	0.61
351.698	0.65
352.063	0.4
352.428	0.14
352.794	0.12
353.159	0.55
353.524	0.37
353.889	0.39
354.254	0.58
354.618	0.39
354.983	0.12
355.348	0.53
355.713	0.45
356.078	0.36
356.443	0.46
356.807	0.4
357.172	0.08
357.537	-0.02
357.901	-0.05
358.266	-0.06
358.63	0.11
358.995	0.13
359.359	0.27
359.724	0.4
360.088	0.52
360.453	0.68
360.817	0.62
361.181	0.68
361.546	0.61
361.91	0.48
362.274	0.36
362.638	0.57
363.003	0.52
363.367	0.48
363.731	0.66
364.095	0.75
364.459	0.64
364.823	0.74
365.187	0.79
365.551	0.85
365.915	0.73
366.279	0.78
366.642	0.68
367.006	0.78
367.37	0.68
367.734	0.66
368.097	0.57
368.461	0.45
368.825	0.27
369.188	0.07
369.552	-0.06
369.915	0.03
370.279	0.34
370.642	0.5
371.006	0.47
371.369	0.6
371.732	0.63
372.096	0.49
372.459	0.59
372.822	0.54
373.186	0.63
373.549	0.54
373.912	0.51
374.275	0.51
374.638	0.55
375.001	0.45
375.364	0.49
375.727	0.6
376.09	0.53
376.453	0.9
376.816	0.76
377.179	0.77
377.542	0.7
377.904	0.59
378.267	0.35
378.63	0.47
378.993	0.22
379.355	0.23
379.718	0.36
380.08	0.25
380.443	0.36
380.806	0.48
381.168	0.44
381.53	0.35
381.893	0.56
382.255	0.53
382.618	0.74
382.98	0.66
383.342	0.62
383.704	0.44
384.067	0.42
384.429	0.39
384.791	0.44
385.153	0.43
385.515	0.46
385.877	0.44
386.239	0.37
386.601	0.41
386.963	0.4
387.325	0.61
387.687	0.55
388.049	0.51
388.41	0.5
388.772	0.57
389.134	0.3
389.496	0.4
389.857	0.45
390.219	0.54
390.58	0.58
390.942	0.62
391.303	0.49
391.665	0.53
392.026	0.4
392.388	0.27
392.749	0.31
393.111	0.29
393.472	0.25
393.833	0.35
394.194	0.47
394.556	0.58
394.917	0.71
395.278	0.73
395.639	0.56
396	0.43
396.361	0.23
396.722	0.06
397.083	-0.02
397.444	0.07
397.805	0.14
398.166	0.23
398.526	0.39
398.887	0.48
399.248	0.66
399.609	0.74
399.969	0.98
400.33	0.91
400.691	1.04
401.051	0.94
401.412	1
401.772	0.8
402.133	0.91
402.493	0.89
402.853	1.01
403.214	0.93
403.574	1.11
403.934	1.11
404.295	1.13
404.655	1.05
405.015	1.22
405.375	1
405.735	0.86
406.095	0.85
406.455	0.85
406.815	0.72
407.175	0.87
407.535	1.2
407.895	1.23
408.255	1.25
408.615	1.34
408.975	1.56
409.334	1.46
409.694	1.42
410.054	1.56
410.413	1.5
410.773	1.37
411.133	1.44
411.492	1.51
411.852	1.67
412.211	1.9
412.571	1.83
412.93	2
413.289	2.17
413.649	2.06
414.008	2.08
414.367	2.19
414.726	2.19
415.086	2.26
415.445	2.34
415.804	2.34
416.163	2.38
416.522	2.34
416.881	2.32
417.24	2.37
417.599	2.42
417.958	2.53
418.316	2.63
418.675	2.62
419.034	2.66
419.393	2.75
419.751	2.79
420.11	2.88
420.469	2.97
420.827	3.04
421.186	3.07
421.544	3.22
421.903	3.25
422.261	3.37
422.62	3.51
422.978	3.62
423.336	3.6
423.695	3.67
424.053	3.75
424.411	3.8
424.769	3.86
425.128	4
425.486	4.11
425.844	4.18
426.202	4.26
426.56	4.36
426.918	4.36
427.276	4.47
427.634	4.49
427.991	4.5
428.349	4.54
428.707	4.6
429.065	4.66
429.423	4.72
429.78	4.73
430.138	4.79
430.495	4.79
430.853	4.84
431.211	4.83
431.568	4.95
431.925	5
432.283	5.09
432.64	5.06
432.998	5.14
433.355	5.17
433.712	5.19
434.069	5.2
434.427	5.27
434.784	5.32
435.141	5.37
435.498	5.36
435.855	5.46
436.212	5.44
436.569	5.51
436.926	5.57
437.283	5.7
437.64	5.81
437.996	5.95
438.353	6.05
438.71	6.13
439.067	6.12
439.423	6.04
439.78	6.08
440.137	6.11
440.493	6.13
440.85	6.19
441.206	6.23
441.563	6.28
441.919	6.39
442.275	6.48
442.632	6.61
442.988	6.76
443.344	6.89
443.7	6.95
444.057	7.06
444.413	7.11
444.769	7.21
445.125	7.23
445.481	7.29
445.837	7.33
446.193	7.41
446.549	7.42
446.905	7.48
447.26	7.56
447.616	7.61
447.972	7.67
448.328	7.8
448.683	7.89
449.039	7.96
449.395	8.2
449.75	8.31
450.106	8.43
450.461	8.59
450.817	8.6
451.172	8.5
451.527	8.59
451.883	8.6
452.238	8.62
452.593	8.76
452.949	8.88
453.304	8.99
453.659	9.06
454.014	9.18
454.369	9.24
454.724	9.24
455.079	9.27
455.434	9.4
455.789	9.46
456.144	9.57
456.499	9.67
456.853	9.69
457.208	9.67
457.563	9.65
457.918	9.61
458.272	9.64
458.627	9.63
458.981	9.67
459.336	9.7
459.69	9.78
460.045	9.87
460.399	9.97
460.754	10.07
461.108	10.11
461.462	10.16
461.817	10.14
462.171	10.13
462.525	10.19
462.879	10.25
463.233	10.27
463.587	10.24
463.941	10.27
464.295	10.13
464.649	10.14
465.003	10.08
465.357	10.12
465.711	10.01
466.065	10.02
466.418	10.02
466.772	10.09
467.126	10.12
467.479	10.28
467.833	10.33
468.186	10.39
468.54	10.43
468.893	10.42
469.247	10.48
469.6	10.5
469.954	10.46
470.307	10.47
470.66	10.58
471.013	10.53
471.367	10.64
471.72	10.68
472.073	10.6
472.426	10.48
472.779	10.5
473.132	10.49
473.485	10.44
473.838	10.51
474.191	10.64
474.544	10.69
474.896	10.59
475.249	10.69
475.602	10.75
475.955	10.75
476.307	10.73
476.66	10.76
477.012	10.85
477.365	10.79
477.717	10.83
478.07	10.83
478.422	10.9
478.775	10.92
479.127	11.06
479.479	11.1
479.831	11.15
480.184	11.16
480.536	11.2
480.888	11.12
481.24	11.02
481.592	11.03
481.944	11.07
482.296	10.91
482.648	10.87
483	10.87
483.352	10.79
483.703	10.73
484.055	10.78
484.407	10.86
484.759	10.94
485.11	11.04
485.462	11.18
485.813	11.32
486.165	11.3
486.516	11.19
486.868	11.15
487.219	11.09
487.571	10.99
487.922	11.03
488.273	11.13
488.624	11.21
488.976	11.3
489.327	11.41
489.678	11.5
490.029	11.52
490.38	11.55
490.731	11.53
491.082	11.51
491.433	11.49
491.784	11.55
492.135	11.64
492.485	11.75
492.836	11.88
493.187	12.01
493.537	12.15
493.888	12.21
494.239	12.34
494.589	12.47
494.94	12.6
495.29	12.62
495.641	12.63
495.991	12.68
496.341	12.66
496.692	12.67
497.042	12.75
497.392	12.86
497.742	12.9
498.092	13.05
498.442	13.29
498.793	13.42
499.143	13.52
499.493	13.62
499.842	13.76
500.192	13.9
500.542	14.06
500.892	14.19
501.242	14.35
501.591	14.55
501.941	14.48
502.291	14.58
502.64	14.82
502.99	14.96
503.339	14.97
503.689	15.21
504.038	15.27
504.388	15.3
504.737	15.41
505.086	15.57
505.436	15.71
505.785	15.92
506.134	16.17
506.483	16.36
506.832	16.52
507.181	16.73
507.53	16.81
507.879	16.85
508.228	16.97
508.577	17.08
508.926	17.09
509.275	17.25
509.624	17.41
509.972	17.49
510.321	17.66
510.67	17.88
511.018	18.12
511.367	18.29
511.715	18.48
512.064	18.61
512.412	18.71
512.761	18.81
513.109	18.92
513.457	19.08
513.806	19.21
514.154	19.4
514.502	19.59
514.85	19.7
515.198	19.85
515.546	20.06
515.894	20.2
516.242	20.18
516.59	20.35
516.938	20.46
517.286	20.49
517.634	20.6
517.981	20.75
518.329	20.86
518.677	21.02
519.024	21.15
519.372	21.31
519.72	21.54
520.067	21.69
520.415	21.8
520.762	21.92
521.109	21.95
521.457	21.99
521.804	22.07
522.151	22.14
522.498	22.28
522.846	22.42
523.193	22.46
523.54	22.56
523.887	22.53
524.234	22.49
524.581	22.58
524.928	22.57
525.275	22.6
525.621	22.74
525.968	22.91
526.315	22.92
526.662	23.06
527.008	23.13
527.355	23.14
527.701	23.05
528.048	23.01
528.394	22.97
528.741	23.04
529.087	23.19
529.434	23.34
529.78	23.55
530.126	23.78
530.472	23.97
530.819	24.07
531.165	24.11
531.511	24.15
531.857	24.2
532.203	24.11
532.549	23.94
532.895	23.82
533.241	23.75
533.586	23.75
533.932	23.83
534.278	24.08
534.624	24.32
534.969	24.46
535.315	24.53
535.661	24.65
536.006	24.46
536.352	24.35
536.697	24.33
537.042	24.37
537.388	24.36
537.733	24.46
538.078	24.59
538.424	24.62
538.769	24.56
539.114	24.42
539.459	24.4
539.804	24.32
540.149	24.22
540.494	24.1
540.839	24.04
541.184	23.87
541.529	23.85
541.873	23.93
542.218	24.13
542.563	24.25
542.908	24.47
543.252	24.59
543.597	24.69
543.941	24.62
544.286	24.67
544.63	24.62
544.975	24.45
545.319	24.19
545.663	23.97
546.007	23.83
546.352	23.8
546.696	23.96
547.04	24.1
547.384	24.31
547.728	24.47
548.072	24.68
548.416	24.88
548.76	25.1
549.104	25.25
549.448	25.36
549.791	25.29
550.135	25.24
550.479	25.27
550.823	25.26
551.166	25.21
551.51	25.14
551.853	25.18
552.197	25.2
552.54	25.14
552.883	25.14
553.227	25.29
553.57	25.39
553.913	25.44
554.257	25.56
554.6	25.76
554.943	25.8
555.286	25.7
555.629	25.65
555.972	25.72
556.315	25.78
556.658	25.77
557.001	25.86
557.343	26
557.686	25.98
558.029	25.91
558.371	25.91
558.714	25.93
559.057	25.94
559.399	25.97
559.742	25.85
560.084	25.88
560.427	25.99
560.769	25.77
561.111	25.66
561.453	25.83
561.796	25.8
562.138	25.77
562.48	25.94
562.822	26.04
563.164	25.98
563.506	26.08
563.848	26
564.19	25.87
564.532	25.82
564.874	25.83
565.215	25.78
565.557	25.8
565.899	25.81
566.24	25.85
566.582	25.79
566.924	25.82
567.265	25.82
567.606	25.94
567.948	26
568.289	26.12
568.631	26.12
568.972	26.19
569.313	26.2
569.654	26.23
569.995	26.16
570.336	26.06
570.677	25.99
571.018	25.9
571.359	25.65
571.7	25.56
572.041	25.55
572.382	25.49
572.723	25.47
573.064	25.51
573.404	25.59
573.745	25.65
574.085	25.61
574.426	25.62
574.766	25.66
575.107	25.58
575.447	25.55
575.788	25.48
576.128	25.33
576.468	25.4
576.808	25.34
577.149	25.31
577.489	25.49
577.829	25.67
578.169	25.6
578.509	25.6
578.849	25.56
579.189	25.49
579.529	25.58
579.868	25.57
580.208	25.61
580.548	25.67
580.887	25.78
581.227	25.62
581.567	25.52
581.906	25.63
582.246	25.61
582.585	25.51
582.925	25.43
583.264	25.47
583.603	25.34
583.942	25.27
584.282	25.18
584.621	25.25
584.96	25.32
585.299	25.38
585.638	25.42
585.977	25.49
586.316	25.44
586.655	25.34
586.994	25.29
587.332	25.18
587.671	25.23
588.01	25.19
588.348	25.3
588.687	25.22
589.026	25.32
589.364	25.26
589.703	25.3
590.041	25.26
590.379	25.42
590.718	25.52
591.056	25.62
591.394	25.65
591.732	25.67
592.07	25.67
592.409	25.62
592.747	25.61
593.085	25.67
593.423	25.66
593.76	25.68
594.098	25.68
594.436	25.6
594.774	25.72
595.112	25.77
595.449	25.64
595.787	25.71
596.124	25.71
596.462	25.47
596.799	25.54
597.137	25.58
597.474	25.64
597.812	25.7
598.149	25.82
598.486	25.87
598.823	25.95
599.16	25.88
599.498	25.96
599.835	26.04
600.172	25.88
600.509	25.95
600.845	26.02
601.182	25.85
601.519	25.87
601.856	26.04
602.193	26.1
602.529	26.05
602.866	26.17
603.202	26.06
603.539	25.91
603.875	25.8
604.212	25.61
604.548	25.6
604.885	25.55
605.221	25.43
605.557	25.53
605.893	25.81
606.23	25.88
606.566	26.16
606.902	26.46
607.238	26.43
607.574	26.29
607.91	26.13
608.245	25.77
608.581	25.62
608.917	25.38
609.253	25.24
609.588	25.08
609.924	24.97
610.26	24.75
610.595	24.5
610.931	24.22
611.266	24.13
611.601	23.99
611.937	23.96
612.272	23.99
612.607	24
612.942	24.07
613.278	24.17
613.613	24.37
613.948	24.58
614.283	24.7
614.618	24.86
614.953	25.01
615.287	24.75
615.622	24.86
615.957	24.97
616.292	24.76
616.626	24.52
616.961	24.73
617.295	24.58
617.63	24.55
617.964	24.8
618.299	24.78
618.633	24.7
618.968	24.67
619.302	24.69
619.636	24.46
619.97	24.56
620.304	24.58
620.638	24.7
620.972	24.64
621.306	24.61
621.64	24.59
621.974	24.54
622.308	24.39
622.642	24.3
622.976	24.28
623.309	24.12
623.643	24.19
623.977	24.07
624.31	24.12
624.644	24.15
624.977	24.31
625.31	24.17
625.644	24.22
625.977	24.18
626.31	24.31
626.643	24.26
626.977	24.22
627.31	24.29
627.643	24.25
627.976	24.32
628.309	24.26
628.642	24.23
628.974	24.28
629.307	24.54
629.64	24.34
629.973	24.44
630.305	24.57
630.638	24.47
630.971	24.22
631.303	24.29
631.636	24.41
631.968	24.49
632.3	24.7
632.633	24.82
632.965	24.79
633.297	24.63
633.629	24.66
633.961	24.44
634.293	24.38
634.625	24.43
634.957	24.45
635.289	24.43
635.621	24.56
635.953	24.67
636.285	24.58
636.617	24.6
636.948	24.51
637.28	24.41
637.611	24.34
637.943	24.34
638.274	24.33
638.606	24.46
638.937	24.33
639.269	24.24
639.6	24.28
639.931	24.25
640.262	23.95
640.593	23.93
640.924	23.89
641.255	23.61
641.586	23.49
641.917	23.41
642.248	23.32
642.579	23.24
642.91	23.32
643.24	23.27
643.571	23.22
643.902	23.15
644.232	22.95
644.563	22.77
644.893	22.48
645.224	22.2
645.554	22.3
645.884	22.23
646.215	22.46
646.545	22.51
646.875	22.72
647.205	22.38
647.535	22.39
647.865	21.9
648.195	21.85
648.525	21.67
648.855	21.73
649.185	21.56
649.515	21.39
649.844	21.16
650.174	20.92
650.504	20.77
650.833	20.57
651.163	20.55
651.492	20.7
651.822	20.65
652.151	20.51
652.48	20.71
652.81	20.88
653.139	20.92
653.468	20.82
653.797	20.91
654.126	20.54
654.455	20.39
654.784	20
655.113	20.18
655.442	19.91
655.771	20.03
656.099	19.92
656.428	20.02
656.757	19.75
657.085	19.77
657.414	19.52
657.742	19.36
658.071	19.06
658.399	19.03
658.728	18.66
659.056	18.46
659.384	18.13
659.712	17.93
660.04	17.78
660.369	17.98
660.697	17.84
661.025	18.02
661.353	17.92
661.68	17.7
662.008	17.26
662.336	17.43
662.664	17.06
662.991	16.93
663.319	16.83
663.647	17.02
663.974	16.33
664.302	16.08
664.629	15.81
664.956	15.51
665.284	15.03
665.611	15.2
665.938	15.37
666.265	15.41
666.593	15.25
666.92	15.37
667.247	15.2
667.574	14.96
667.9	14.78
668.227	14.95
668.554	14.53
668.881	14.39
669.208	14.32
669.534	14.17
669.861	13.87
670.187	13.96
670.514	13.78
670.84	13.51
671.167	13.6
671.493	13.7
671.819	13.68
672.146	13.76
672.472	13.82
672.798	13.67
673.124	13.43
673.45	13.31
673.776	13.36
674.102	13.41
674.428	13.36
674.754	13.6
675.079	13.65
675.405	13.49
675.731	13.5
676.056	13.58
676.382	13.65
676.707	13.78
677.033	13.91
677.358	13.95
677.684	14
678.009	13.99
678.334	13.76
678.659	13.91
678.985	13.66
679.31	13.87
679.635	13.67
679.96	13.73
680.285	13.67
680.609	14.08
680.934	13.91
681.259	14.27
681.584	14.49
681.908	14.65
682.233	14.59
682.558	14.97
682.882	14.99
683.207	15.19
683.531	15.61
683.855	15.99
684.18	16.58
684.504	17.15
684.828	17.56
685.152	17.72
685.476	18.03
685.8	18.02
686.124	18.22
686.448	18.54
686.772	18.76
687.096	19.36
687.42	19.72
687.744	20.36
688.067	20.82
688.391	21.47
688.714	21.7
689.038	22.26
689.361	22.69
689.685	23.24
690.008	23.96
690.331	24.69
690.655	25.32
690.978	25.72
691.301	26.07
691.624	26.17
691.947	26.72
692.27	27.09
692.593	27.6
692.916	28.38
693.239	29.1
693.561	29.75
693.884	30.59
694.207	31.14
694.529	32.04
694.852	32.55
695.174	32.79
695.497	32.95
695.819	33.3
696.142	33.13
696.464	33.53
696.786	33.83
697.108	34.04
697.43	34.31
697.753	34.98
698.075	35.15
698.397	35.42
698.718	35.87
699.04	36.03
699.362	36.21
699.684	36.86
700.006	37.36
700.327	37.81
700.649	38.7
700.97	39.32
701.292	39.38
701.613	39.47
701.935	39.6
702.256	40.04
702.577	39.77
702.898	40.24
703.22	40.92
703.541	41.49
703.862	41.46
704.183	41.97
704.504	42.53
704.825	42.42
705.145	42.45
705.466	42.51
705.787	42.96
706.108	42.8
706.428	43.41
706.749	43.73
707.069	44
707.39	43.88
707.71	44.49
708.03	44.6
708.351	44.87
708.671	44.72
708.991	45.04
709.311	45.32
709.631	45.85
709.951	46.07
710.271	46.32
710.591	46.37
710.911	46.35
711.231	46.04
711.551	46.19
711.87	46.52
712.19	46.98
712.51	47.44
712.829	47.46
713.149	47.71
713.468	47.73
713.787	47.41
714.107	47.25
714.426	47.87
714.745	47.71
715.064	47.76
715.383	47.81
715.702	47.59
716.021	47.44
716.34	47.58
716.659	47.55
716.978	47.97
717.297	48.36
717.615	48.29
717.934	48.5
718.253	49.33
718.571	49.46
718.89	49.47
719.208	49.61
719.527	49.86
719.845	49.87
720.163	49.91
720.481	50
720.8	50.46
721.118	50.34
721.436	50.52
721.754	50.71
722.072	50.89
722.39	50.66
722.707	50.7
723.025	51.09
723.343	51.06
723.661	51.44
723.978	51.44
724.296	51.12
724.613	50.81
724.931	51.32
725.248	51.29
725.565	51.69
725.883	52.4
726.2	51.72
726.517	51.37
726.834	51.37
727.151	51.37
727.468	51.9
727.785	52.47
728.102	52.53
728.419	52.28
728.736	52.45
729.052	51.99
729.369	52.3
729.686	52.84
730.002	53.13
730.319	53.24
730.635	53.42
730.951	53.73
731.268	53.5
731.584	53.37
731.9	53.26
732.216	53.45
732.533	53.22
732.849	53.25
733.165	53.26
733.481	53.36
733.796	53.27
734.112	53.88
734.428	54.23
734.744	54.67
735.059	54.71
735.375	54.84
735.691	54.28
736.006	54.3
736.322	54.14
736.637	54.73
736.952	55
737.268	55.33
737.583	55.23
737.898	55.46
738.213	55.71
738.528	55.83
738.843	55.18
739.158	55.46
739.473	55.61
739.788	55.5
740.102	55.19
740.417	55.81
740.732	55.73
741.046	56.01
741.361	55.8
741.675	55.7
741.99	55.5
742.304	55.53
742.618	55.19
742.933	55.78
743.247	56.17
743.561	56.36
743.875	56.46
744.189	56.67
744.503	55.74
744.817	55.61
745.131	55.61
745.445	56.21
745.758	56.17
746.072	56.72
746.386	56.13
746.699	56.36
747.013	56.29
747.326	56.53
747.64	56.36
747.953	56.25
748.266	56.31
748.58	55.26
748.893	55.21
749.206	54.73
749.519	55.71
749.832	55.58
750.145	55.89
750.458	55.84
750.771	56.09
751.083	55.81
751.396	55.43
751.709	55.11
752.021	54.93
752.334	54.77
752.646	54.98
752.959	54.76
753.271	55.51
753.584	55.9
753.896	56.27
754.208	55.75
754.52	56.34
754.832	56.14
755.144	55.7
755.456	56.09
755.768	56.39
756.08	56.29
756.392	55.88
756.704	56.3
757.015	56.15
757.327	56.03
757.638	56.1
757.95	56.91
758.261	56.34
758.573	55.96
758.884	56.21
759.195	55.95
759.507	55.48
759.818	55.47
760.129	55.71
760.44	55.88
760.751	56.1
761.062	56.21
761.373	57.3
761.684	57.18
761.994	56.78
762.305	56.46
762.616	56.37
762.926	54.86
763.237	53.97
763.547	54.34
763.858	54.63
764.168	54.51
764.478	55.03
764.789	56
765.099	55.88
765.409	55.82
765.719	55.78
766.029	55.56
766.339	55.2
766.649	54.34
766.959	54.87
767.269	54.65
767.578	54.53
767.888	54.82
768.198	55.55
768.507	54.45
768.817	54.78
769.126	55.17
769.435	55.05
769.745	55.14
770.054	55.31
770.363	54.62
770.672	53.93
770.981	53.15
771.29	52.11
771.599	51.56
771.908	53.18
772.217	53.7
772.526	54.73
772.835	55.93
773.143	57.92
773.452	57.35
773.76	57.59
774.069	57.65
774.377	58.81
774.686	58.16
774.994	58.87
775.302	58.55
775.611	58.49
775.919	57.6
776.227	58.97
776.535	58.01
776.843	59.06
777.151	58.05
777.459	56.84
777.766	55.19
778.074	55.41
778.382	54.95
778.689	55.51
778.997	56.82
779.304	55.93
779.612	54.21
779.919	54.43
780.227	55.42
780.534	53.81
780.841	53.6
781.148	54.13
781.455	53.85
781.762	52.24
782.069	53.1
782.376	53.98
782.683	53.21
782.99	50
783.296	49.51
783.603	49.53
783.91	49.46
784.216	51.09
784.523	55.74
784.829	58.22
785.136	59.8
785.442	59.57
785.748	58.29
786.054	55.69
786.36	54.1
786.667	52.45
786.973	53.93
787.278	55.21
787.584	54.84
787.89	57.26
788.196	56.23
788.502	54.04
788.807	54.16
789.113	55.29
789.418	52.71
789.724	53.79
790.029	54.54
790.335	54.56
790.64	54.65
790.945	55.45
791.25	57.29
791.556	57.7
791.861	57.35
792.166	58.55
792.471	57.98
792.775	57.41
793.08	59.29
793.385	60.15
793.69	59.04
793.994	60.25
794.299	58.54
794.603	55.15
794.908	54.71
795.212	55.66
795.517	56.26
795.821	57.57
796.125	59.96
796.429	60.83
796.733	61.07
797.037	60.2
797.341	58.48
797.645	57.75
797.949	57.59
798.253	56.57
798.557	57.97
798.86	58.02
799.164	59.46
799.468	58.01
799.771	59.45
800.074	60.03
800.378	61.19
800.681	57.4
800.984	56.31
801.288	53.56
801.591	52.52
801.894	54.49
802.197	57.77
802.5	60.63
802.803	62.66
803.105	61.45
803.408	57.71
803.711	55.44
804.014	55.26
804.316	53.75
804.619	52.58
804.921	53.87
805.224	54.48
805.526	53.69
805.828	52.38
806.13	54.42
806.433	54.5
806.735	55.35
807.037	55.91
807.339	58.75
807.641	59.62
807.942	59.78
808.244	59.85
808.546	60.33
808.848	60.37
809.149	59.09
809.451	60.65
809.752	60.81
810.054	61
810.355	62.21
810.656	61.11
810.958	59.84
811.259	57.3
811.56	56.68
811.861	53.34
812.162	51.66
812.463	50.38
812.764	53.77
813.065	54.44
813.365	56.78
813.666	60.18
813.967	59.8
814.267	60.31
814.568	60.02
814.868	58.37
815.169	57.82
815.469	61.04
815.769	58.38
816.069	59.74
816.37	60.18
816.67	59.78
816.97	60.1
817.27	57.68
817.57	55.74
817.869	57.31
818.169	57.69
818.469	58.86
818.768	62.02
819.068	63.98
819.368	61.56
819.667	62.46
819.966	60.11
820.266	59.15
820.565	57.85
820.864	59.56
821.163	58.28
821.463	57.41
821.762	57
822.06	57.47
822.359	58.66
822.658	59.05
822.957	58.51
823.256	58.79
823.554	58.31
823.853	58.27
824.152	58.04
824.45	58.53
824.748	59.09
825.047	59.74
825.345	59.6
825.643	60.47
825.941	60.9
826.239	59.15
826.538	58.02
826.836	57.57
827.133	57.21
827.431	57.81
827.729	58.75
828.027	59.99
828.324	58.92
828.622	60.14
828.92	59.16
829.217	58.8
829.514	58.52
829.812	60.13
830.109	57.88
830.406	57.3
830.703	58.73
831.001	58.8
831.298	55.41
831.595	56.07
831.891	58.56
832.188	57.05
832.485	57.67
832.782	63.97
833.078	64.66
833.375	64.19
833.672	63.86
833.968	62.39
834.264	59.19
834.561	56.12
834.857	54.76
835.153	56.09
835.449	55.48
835.746	53.93
836.042	54.96
836.338	55.85
836.633	56.18
836.929	56.64
837.225	60.1
837.521	61.98
837.816	62.81
838.112	59.18
838.408	62.39
838.703	62.51
838.998	59.04
839.294	59.74
839.589	59.32
839.884	56.35
840.179	56.72
840.474	62.08
840.77	58.45
841.064	59.97
841.359	59.58
841.654	57.39
841.949	56.29
842.244	61.68
842.538	66.47
842.833	65.11
843.127	65.36
843.422	68.6
843.716	66.57
844.011	67.18
844.305	75.27
844.599	77.5
844.893	78.73
845.187	77.15
845.481	68.98
845.775	70.55
846.069	65.54
846.363	58.91
846.657	59.96
846.95	71.09
847.244	57.87
847.537	64.8
847.831	61.19
848.124	62.45
848.418	67.44
848.711	83.13
849.004	101.81
849.297	113.97
849.591	93.09
849.884	67.94
850.177	64.37
850.47	56.76
850.762	48.67
851.055	51.93
851.348	59.06
851.641	79.14
851.933	83.41
852.226	73.4
852.518	73.83
852.811	90.79
853.103	83.41
853.395	78.58
853.687	91.29
853.98	80.52
854.272	71.72
854.564	60.9
854.856	56.37
855.148	52.01
855.439	64.01
855.731	65.71
856.023	65.53
856.314	85.59
856.606	83.8
856.898	93.97
857.189	84.31
857.48	108.27
857.772	92.07
858.063	96.89
858.354	82.96
858.645	99.65
858.936	68.61
859.227	61.49
859.518	65.72
859.809	52.81
860.1	47.51
860.391	58.13
860.681	58.87
860.972	78.52
861.262	86.41
861.553	81.17
861.843	84.2
862.134	114.7
862.424	76.48
862.714	120.36
863.004	159.91
863.294	98.49
863.584	127.02
863.874	119.6
864.164	154.69
864.454	66.71
864.744	122.55
865.034	96.06
865.323	69.22
865.613	53.02
865.902	52.42
866.192	32.76
866.481	-5.97
866.77	-26.26
867.06	-62.1
867.349	-58.81
867.638	-30.91
867.927	-13.69
868.216	26.84
868.505	-37.51
868.794	-153.12
869.082	-261.56
869.371	-102.68
869.66	-47.85
869.948	-87.81
870.237	-45.47
870.525	-9.2
870.814	215.89
871.102	650.52
871.39	171.37
871.678	169.24
871.967	180.84
872.255	157
872.543	142.64
872.831	153.92
873.118	220.57
873.406	-246.3
873.694	-182.46
873.982	-146.02
874.269	199.72
874.557	199.22
874.844	122.85
875.132	98.56
875.419	123.68
