Data from Capu-i3_Reflection_16-02-16-368.txt Node
Date: Tue Aug 16 16:02:16 CEST 2022
User: IDIV
Spectrometer: FLMS14958
Trigger mode: 0
Integration Time (sec): 1.000000E-1
Scans to average: 10
Electric dark correction enabled: true
Nonlinearity correction enabled: true
Boxcar width: 2
XAxis mode: Wavelengths
Number of Pixels in Spectrum: 2048
>>>>>Begin Spectral Data<<<<<
179.491	-202.09
179.869	-90.4
180.247	-51.62
180.625	66.37
181.003	159.35
181.381	435.89
181.759	2927.98
182.136	-481.65
182.514	-191.55
182.892	13.74
183.27	2180.52
183.647	-149.53
184.025	44.1
184.403	86.21
184.78	-5.82
185.158	-13.35
185.536	-3.01
185.913	-544.4
186.291	588.47
186.668	-48.98
187.046	28.84
187.423	91.05
187.801	-117.48
188.178	-23.29
188.556	-34.86
188.933	-49.01
189.31	-43.89
189.688	-33.36
190.065	-28.15
190.442	-23.65
190.82	-2.07
191.197	16.04
191.574	13.83
191.951	27.02
192.329	27.23
192.706	15.28
193.083	4.14
193.46	9.87
193.837	-7.78
194.214	-1.8
194.591	10.31
194.968	19.86
195.345	10.99
195.722	8.46
196.099	8.13
196.476	12.6
196.853	-3.36
197.23	12.65
197.607	11.42
197.984	15.06
198.36	-7.93
198.737	-2.16
199.114	-10.86
199.491	5.24
199.867	5.17
200.244	1.08
200.621	-3.78
200.997	-15.48
201.374	-26.86
201.75	-35.75
202.127	-19.58
202.504	-16.2
202.88	-4.66
203.257	-0.61
203.633	3.72
204.01	-1.78
204.386	6.9
204.762	4.9
205.139	5.52
205.515	1.47
205.891	0.96
206.268	-8.55
206.644	-12.18
207.02	-6.2
207.396	4.46
207.773	15.4
208.149	22.91
208.525	26.94
208.901	32.61
209.277	32.8
209.653	32.32
210.029	32.97
210.405	35.06
210.781	30.8
211.157	20.06
211.533	13.39
211.909	11.79
212.285	7.17
212.661	7.57
213.037	16.16
213.413	18.91
213.789	18.66
214.164	16.14
214.54	14.98
214.916	9.61
215.292	6.54
215.667	5.07
216.043	7.79
216.419	6.36
216.794	14.58
217.17	10.51
217.545	5.49
217.921	9.09
218.296	6.36
218.672	1.09
219.047	5.97
219.423	9.15
219.798	7.61
220.174	6.86
220.549	10.94
220.924	1.7
221.3	6.38
221.675	-0.49
222.05	3
222.425	-1.86
222.801	9.45
223.176	3.12
223.551	6.06
223.926	4.9
224.301	0.44
224.676	1.06
225.051	6.53
225.426	11
225.801	10.4
226.176	15.94
226.551	9.84
226.926	9.09
227.301	8.38
227.676	10.5
228.051	10.75
228.426	9.77
228.801	8.48
229.175	9.41
229.55	9.38
229.925	8.67
230.3	10.49
230.674	11.26
231.049	10.37
231.424	9.51
231.798	9.35
232.173	8.94
232.547	9.14
232.922	10.4
233.296	11.42
233.671	10.61
234.045	11.17
234.42	10.73
234.794	10.07
235.168	9.29
235.543	9.55
235.917	8.6
236.291	9.13
236.666	9.05
237.04	8.77
237.414	10.35
237.788	10.11
238.162	9.49
238.537	8.71
238.911	9.5
239.285	7.97
239.659	8.09
240.033	7.31
240.407	7.94
240.781	7.74
241.155	8.03
241.529	7.84
241.903	8.27
242.277	8.02
242.65	7.94
243.024	7.98
243.398	8.06
243.772	7.98
244.146	7.87
244.519	7.7
244.893	7.5
245.267	7.12
245.64	6.81
246.014	7.03
246.387	7.23
246.761	7.38
247.135	7.67
247.508	7.73
247.882	7.83
248.255	7.88
248.628	7.86
249.002	7.76
249.375	7.73
249.749	7.65
250.122	7.55
250.495	7.58
250.868	7.81
251.242	7.88
251.615	7.77
251.988	7.71
252.361	7.67
252.734	7.52
253.107	7.67
253.481	7.68
253.854	7.89
254.227	8.05
254.6	8.64
254.973	8.75
255.346	9.55
255.718	9.28
256.091	8.88
256.464	8.33
256.837	8.14
257.21	7.13
257.583	7.45
257.955	7.72
258.328	7.86
258.701	7.61
259.074	7.89
259.446	7.69
259.819	7.71
260.191	7.72
260.564	7.91
260.936	7.88
261.309	7.91
261.681	7.94
262.054	8.02
262.426	7.87
262.799	7.85
263.171	8.1
263.543	8.05
263.916	8.01
264.288	8.03
264.66	7.87
265.033	7.39
265.405	7.68
265.777	7.52
266.149	7.62
266.521	7.77
266.893	8.1
267.265	7.98
267.637	8.02
268.009	7.91
268.381	7.84
268.753	7.76
269.125	7.73
269.497	7.64
269.869	7.66
270.241	8.02
270.613	8.01
270.985	7.77
271.356	7.69
271.728	7.8
272.1	7.63
272.471	7.65
272.843	7.58
273.215	7.74
273.586	7.63
273.958	7.91
274.329	7.8
274.701	7.93
275.072	7.93
275.444	8.06
275.815	7.85
276.187	8.18
276.558	8.44
276.929	8.33
277.301	8.14
277.672	7.98
278.043	7.74
278.415	7.47
278.786	7.54
279.157	7.46
279.528	7.77
279.899	8.04
280.27	8.09
280.641	8
281.012	8.08
281.383	7.64
281.754	7.51
282.125	7.72
282.496	7.82
282.867	7.98
283.238	8
283.609	7.77
283.98	7.66
284.35	7.65
284.721	7.61
285.092	7.58
285.462	7.69
285.833	7.77
286.204	7.86
286.574	7.77
286.945	7.9
287.315	7.69
287.686	7.39
288.056	7.27
288.427	7.22
288.797	7.2
289.168	7.29
289.538	7.43
289.908	7.33
290.279	7.39
290.649	7.48
291.019	7.64
291.39	7.6
291.76	7.72
292.13	7.9
292.5	7.7
292.87	7.53
293.24	7.49
293.61	7.12
293.98	6.75
294.35	6.8
294.72	6.92
295.09	7.19
295.46	7.22
295.83	7.21
296.2	7.22
296.57	7.38
296.939	7.25
297.309	7.45
297.679	7.53
298.049	7.63
298.418	7.63
298.788	7.6
299.158	7.66
299.527	7.72
299.897	7.61
300.266	7.45
300.636	7.64
301.005	7.38
301.375	7.42
301.744	7.34
302.113	7.36
302.483	7.18
302.852	7.34
303.221	7.3
303.591	7.28
303.96	7.21
304.329	7.47
304.698	7.49
305.067	7.33
305.436	7.47
305.806	7.51
306.175	7.05
306.544	6.89
306.913	7.11
307.282	7.34
307.65	7.46
308.019	7.63
308.388	7.94
308.757	7.94
309.126	7.89
309.495	7.74
309.863	7.7
310.232	7.38
310.601	7.2
310.969	7.04
311.338	7.11
311.707	7.16
312.075	7.27
312.444	7.29
312.812	7.27
313.181	7.09
313.549	7.03
313.918	7.16
314.286	7.36
314.654	7.49
315.023	7.53
315.391	7.67
315.759	7.45
316.127	7.3
316.496	7.15
316.864	7.35
317.232	7.22
317.6	7.43
317.968	7.4
318.336	7.37
318.704	7.24
319.072	7.43
319.44	7.5
319.808	7.34
320.176	7.68
320.544	7.49
320.912	7.23
321.28	7.13
321.647	7.07
322.015	6.91
322.383	7.19
322.75	7.21
323.118	6.81
323.486	6.86
323.853	6.94
324.221	6.94
324.588	7.03
324.956	7.24
325.323	7.45
325.691	7.17
326.058	7.07
326.426	6.97
326.793	6.77
327.16	6.4
327.528	6.36
327.895	6.39
328.262	6.4
328.629	6.62
328.996	6.95
329.363	7.11
329.731	7.01
330.098	7.14
330.465	7.01
330.832	6.96
331.199	6.74
331.566	6.64
331.932	6.38
332.299	6.22
332.666	6.05
333.033	6.01
333.4	6.09
333.766	5.97
334.133	6.25
334.5	6.24
334.867	6.63
335.233	6.66
335.6	6.79
335.966	6.5
336.333	6.89
336.699	6.61
337.066	6.71
337.432	6.82
337.799	7.08
338.165	6.8
338.531	6.8
338.898	6.95
339.264	6.95
339.63	6.85
339.996	7.06
340.363	7.29
340.729	7.11
341.095	6.83
341.461	6.86
341.827	6.7
342.193	6.61
342.559	6.54
342.925	6.79
343.291	6.7
343.657	6.69
344.023	6.69
344.388	6.6
344.754	6.76
345.12	6.87
345.486	6.83
345.851	6.72
346.217	6.62
346.583	6.52
346.948	6.39
347.314	6.37
347.679	6.25
348.045	6.57
348.41	6.47
348.776	6.39
349.141	6.24
349.507	6.63
349.872	6.44
350.237	6.48
350.603	6.49
350.968	6.59
351.333	6.52
351.698	6.48
352.063	6.59
352.428	6.59
352.794	6.6
353.159	6.23
353.524	6.17
353.889	6.03
354.254	5.98
354.618	6.19
354.983	6.27
355.348	6.41
355.713	6.47
356.078	6.56
356.443	6.5
356.807	6.44
357.172	6.46
357.537	6.35
357.901	6.27
358.266	6.15
358.63	6.27
358.995	6.16
359.359	6.07
359.724	6.06
360.088	6.05
360.453	5.97
360.817	5.79
361.181	5.71
361.546	5.82
361.91	5.87
362.274	5.91
362.638	6.01
363.003	6.02
363.367	6.01
363.731	6.01
364.095	5.97
364.459	6.08
364.823	6.07
365.187	5.88
365.551	5.93
365.915	6
366.279	5.91
366.642	5.97
367.006	6.2
367.37	5.95
367.734	5.93
368.097	5.95
368.461	5.99
368.825	5.98
369.188	6.16
369.552	6.13
369.915	6.24
370.279	6.06
370.642	5.89
371.006	5.85
371.369	5.81
371.732	5.82
372.096	5.99
372.459	6.1
372.822	6.29
373.186	6.34
373.549	6.27
373.912	6.31
374.275	6.33
374.638	6.26
375.001	6.3
375.364	6.37
375.727	6.43
376.09	6.33
376.453	6.2
376.816	6.15
377.179	5.9
377.542	5.86
377.904	5.81
378.267	5.89
378.63	5.89
378.993	6.06
379.355	6.07
379.718	6.12
380.08	5.98
380.443	5.98
380.806	5.96
381.168	5.87
381.53	6.01
381.893	6.02
382.255	6
382.618	6
382.98	5.95
383.342	5.69
383.704	5.64
384.067	5.67
384.429	5.74
384.791	5.78
385.153	6.06
385.515	6.22
385.877	6.12
386.239	5.96
386.601	6.07
386.963	5.94
387.325	5.92
387.687	5.98
388.049	6.15
388.41	6.13
388.772	5.97
389.134	5.86
389.496	5.91
389.857	5.82
390.219	5.76
390.58	5.87
390.942	6.03
391.303	5.86
391.665	5.84
392.026	5.77
392.388	5.86
392.749	5.65
393.111	5.89
393.472	5.99
393.833	6.08
394.194	5.89
394.556	5.99
394.917	5.86
395.278	5.77
395.639	5.82
396	5.9
396.361	5.85
396.722	5.75
397.083	5.74
397.444	5.49
397.805	5.52
398.166	5.52
398.526	5.65
398.887	5.74
399.248	5.82
399.609	5.89
399.969	5.87
400.33	5.9
400.691	5.95
401.051	6.04
401.412	6
401.772	5.97
402.133	5.82
402.493	5.73
402.853	5.7
403.214	5.62
403.574	5.68
403.934	5.85
404.295	5.89
404.655	5.97
405.015	6.03
405.375	5.98
405.735	5.83
406.095	5.83
406.455	5.76
406.815	5.67
407.175	5.65
407.535	5.7
407.895	5.62
408.255	5.64
408.615	5.67
408.975	5.7
409.334	5.74
409.694	5.71
410.054	5.73
410.413	5.7
410.773	5.73
411.133	5.71
411.492	5.76
411.852	5.79
412.211	5.96
412.571	5.9
412.93	5.97
413.289	5.94
413.649	5.8
414.008	5.76
414.367	5.72
414.726	5.67
415.086	5.72
415.445	5.78
415.804	5.75
416.163	5.9
416.522	5.84
416.881	5.82
417.24	5.76
417.599	5.74
417.958	5.71
418.316	5.77
418.675	5.75
419.034	5.84
419.393	5.87
419.751	5.89
420.11	5.86
420.469	5.88
420.827	5.82
421.186	5.82
421.544	5.78
421.903	5.76
422.261	5.7
422.62	5.71
422.978	5.66
423.336	5.67
423.695	5.69
424.053	5.75
424.411	5.76
424.769	5.78
425.128	5.77
425.486	5.83
425.844	5.84
426.202	5.84
426.56	5.87
426.918	5.95
427.276	5.86
427.634	5.85
427.991	5.83
428.349	5.78
428.707	5.64
429.065	5.64
429.423	5.63
429.78	5.67
430.138	5.73
430.495	5.84
430.853	5.93
431.211	5.94
431.568	5.93
431.925	5.88
432.283	5.83
432.64	5.83
432.998	5.81
433.355	5.74
433.712	5.69
434.069	5.69
434.427	5.66
434.784	5.62
435.141	5.73
435.498	5.85
435.855	5.83
436.212	5.74
436.569	5.79
436.926	5.73
437.283	5.62
437.64	5.71
437.996	5.78
438.353	5.78
438.71	5.79
439.067	5.86
439.423	5.8
439.78	5.76
440.137	5.76
440.493	5.77
440.85	5.76
441.206	5.78
441.563	5.82
441.919	5.82
442.275	5.85
442.632	5.83
442.988	5.84
443.344	5.86
443.7	5.81
444.057	5.77
444.413	5.78
444.769	5.73
445.125	5.63
445.481	5.68
445.837	5.69
446.193	5.67
446.549	5.7
446.905	5.79
447.26	5.79
447.616	5.81
447.972	5.82
448.328	5.82
448.683	5.8
449.039	5.83
449.395	5.86
449.75	5.84
450.106	5.93
450.461	5.92
450.817	5.85
451.172	5.74
451.527	5.66
451.883	5.51
452.238	5.55
452.593	5.52
452.949	5.57
453.304	5.69
453.659	5.76
454.014	5.7
454.369	5.74
454.724	5.77
455.079	5.77
455.434	5.71
455.789	5.7
456.144	5.7
456.499	5.71
456.853	5.74
457.208	5.82
457.563	5.8
457.918	5.8
458.272	5.78
458.627	5.66
458.981	5.65
459.336	5.72
459.69	5.72
460.045	5.66
460.399	5.72
460.754	5.72
461.108	5.68
461.462	5.67
461.817	5.74
462.171	5.77
462.525	5.77
462.879	5.68
463.233	5.76
463.587	5.75
463.941	5.73
464.295	5.69
464.649	5.79
465.003	5.67
465.357	5.64
465.711	5.55
466.065	5.6
466.418	5.63
466.772	5.69
467.126	5.65
467.479	5.67
467.833	5.64
468.186	5.65
468.54	5.66
468.893	5.63
469.247	5.71
469.6	5.77
469.954	5.68
470.307	5.74
470.66	5.77
471.013	5.7
471.367	5.68
471.72	5.66
472.073	5.54
472.426	5.57
472.779	5.57
473.132	5.58
473.485	5.62
473.838	5.63
474.191	5.71
474.544	5.79
474.896	5.7
475.249	5.72
475.602	5.77
475.955	5.72
476.307	5.62
476.66	5.71
477.012	5.7
477.365	5.69
477.717	5.71
478.07	5.81
478.422	5.77
478.775	5.82
479.127	5.82
479.479	5.79
479.831	5.72
480.184	5.69
480.536	5.66
480.888	5.59
481.24	5.64
481.592	5.64
481.944	5.59
482.296	5.57
482.648	5.57
483	5.53
483.352	5.52
483.703	5.6
484.055	5.61
484.407	5.66
484.759	5.7
485.11	5.77
485.462	5.81
485.813	5.86
486.165	5.85
486.516	5.85
486.868	5.82
487.219	5.78
487.571	5.75
487.922	5.75
488.273	5.74
488.624	5.74
488.976	5.73
489.327	5.75
489.678	5.73
490.029	5.73
490.38	5.72
490.731	5.69
491.082	5.64
491.433	5.66
491.784	5.66
492.135	5.7
492.485	5.78
492.836	5.82
493.187	5.84
493.537	5.91
493.888	5.87
494.239	5.83
494.589	5.86
494.94	5.84
495.29	5.81
495.641	5.8
495.991	5.8
496.341	5.77
496.692	5.77
497.042	5.76
497.392	5.77
497.742	5.7
498.092	5.71
498.442	5.69
498.793	5.76
499.143	5.76
499.493	5.84
499.842	5.84
500.192	5.86
500.542	5.83
500.892	5.82
501.242	5.81
501.591	5.77
501.941	5.82
502.291	5.78
502.64	5.76
502.99	5.74
503.339	5.8
503.689	5.8
504.038	5.85
504.388	5.87
504.737	5.83
505.086	5.84
505.436	5.78
505.785	5.71
506.134	5.75
506.483	5.77
506.832	5.77
507.181	5.79
507.53	5.77
507.879	5.76
508.228	5.76
508.577	5.7
508.926	5.71
509.275	5.75
509.624	5.74
509.972	5.76
510.321	5.78
510.67	5.74
511.018	5.8
511.367	5.79
511.715	5.81
512.064	5.86
512.412	5.93
512.761	5.9
513.109	5.91
513.457	5.89
513.806	5.84
514.154	5.77
514.502	5.73
514.85	5.71
515.198	5.64
515.546	5.67
515.894	5.74
516.242	5.75
516.59	5.77
516.938	5.82
517.286	5.8
517.634	5.76
517.981	5.71
518.329	5.71
518.677	5.74
519.024	5.74
519.372	5.77
519.72	5.82
520.067	5.81
520.415	5.84
520.762	5.86
521.109	5.83
521.457	5.82
521.804	5.84
522.151	5.83
522.498	5.84
522.846	5.86
523.193	5.87
523.54	5.88
523.887	5.88
524.234	5.86
524.581	5.8
524.928	5.78
525.275	5.75
525.621	5.72
525.968	5.78
526.315	5.82
526.662	5.82
527.008	5.84
527.355	5.9
527.701	5.85
528.048	5.81
528.394	5.78
528.741	5.79
529.087	5.78
529.434	5.81
529.78	5.85
530.126	5.92
530.472	5.94
530.819	5.98
531.165	5.96
531.511	5.97
531.857	5.99
532.203	5.98
532.549	5.93
532.895	5.92
533.241	5.92
533.586	5.91
533.932	5.93
534.278	5.95
534.624	5.99
534.969	6.02
535.315	6.02
535.661	5.98
536.006	6
536.352	5.95
536.697	5.92
537.042	5.92
537.388	5.98
537.733	5.99
538.078	6.1
538.424	6.16
538.769	6.18
539.114	6.15
539.459	6.14
539.804	6.09
540.149	6
540.494	5.96
540.839	5.93
541.184	5.87
541.529	5.85
541.873	5.89
542.218	5.94
542.563	5.99
542.908	6.04
543.252	6.08
543.597	6.08
543.941	6.06
544.286	6.08
544.63	6.12
544.975	6.11
545.319	6.08
545.663	6.07
546.007	6.05
546.352	5.98
546.696	5.98
547.04	5.99
547.384	5.98
547.728	5.99
548.072	6
548.416	6.03
548.76	6.02
549.104	6.07
549.448	6.12
549.791	6.16
550.135	6.11
550.479	6.15
550.823	6.09
551.166	6.02
551.51	5.98
551.853	6.01
552.197	5.96
552.54	5.97
552.883	5.95
553.227	6.01
553.57	6.07
553.913	6.17
554.257	6.22
554.6	6.22
554.943	6.18
555.286	6.21
555.629	6.21
555.972	6.19
556.315	6.23
556.658	6.28
557.001	6.21
557.343	6.26
557.686	6.25
558.029	6.23
558.371	6.23
558.714	6.18
559.057	6.07
559.399	6.06
559.742	6.06
560.084	6.05
560.427	6.13
560.769	6.16
561.111	6.11
561.453	6.07
561.796	6.08
562.138	6.04
562.48	6.05
562.822	6.12
563.164	6.23
563.506	6.2
563.848	6.18
564.19	6.18
564.532	6.21
564.874	6.13
565.215	6.16
565.557	6.22
565.899	6.16
566.24	6.15
566.582	6.21
566.924	6.25
567.265	6.25
567.606	6.34
567.948	6.38
568.289	6.41
568.631	6.41
568.972	6.42
569.313	6.48
569.654	6.44
569.995	6.38
570.336	6.37
570.677	6.38
571.018	6.34
571.359	6.33
571.7	6.39
572.041	6.41
572.382	6.36
572.723	6.37
573.064	6.44
573.404	6.45
573.745	6.47
574.085	6.57
574.426	6.57
574.766	6.57
575.107	6.53
575.447	6.5
575.788	6.41
576.128	6.43
576.468	6.45
576.808	6.55
577.149	6.54
577.489	6.56
577.829	6.56
578.169	6.54
578.509	6.44
578.849	6.52
579.189	6.56
579.529	6.54
579.868	6.51
580.208	6.53
580.548	6.5
580.887	6.49
581.227	6.52
581.567	6.61
581.906	6.66
582.246	6.7
582.585	6.75
582.925	6.74
583.264	6.7
583.603	6.66
583.942	6.76
584.282	6.8
584.621	6.81
584.96	6.84
585.299	6.81
585.638	6.79
585.977	6.75
586.316	6.59
586.655	6.59
586.994	6.59
587.332	6.44
587.671	6.35
588.01	6.48
588.348	6.51
588.687	6.58
589.026	6.65
589.364	6.81
589.703	6.87
590.041	6.85
590.379	6.83
590.718	6.84
591.056	6.82
591.394	6.73
591.732	6.78
592.07	6.74
592.409	6.71
592.747	6.74
593.085	6.79
593.423	6.77
593.76	6.84
594.098	6.88
594.436	6.83
594.774	6.82
595.112	6.76
595.449	6.84
595.787	6.9
596.124	6.95
596.462	7.02
596.799	7.03
597.137	6.94
597.474	6.92
597.812	6.97
598.149	7.01
598.486	7.14
598.823	7.27
599.16	7.26
599.498	7.28
599.835	7.31
600.172	7.28
600.509	7.28
600.845	7.38
601.182	7.33
601.519	7.34
601.856	7.29
602.193	7.29
602.529	7.24
602.866	7.24
603.202	7.22
603.539	7.29
603.875	7.35
604.212	7.36
604.548	7.34
604.885	7.33
605.221	7.35
605.557	7.37
605.893	7.48
606.23	7.58
606.566	7.6
606.902	7.62
607.238	7.56
607.574	7.52
607.91	7.46
608.245	7.54
608.581	7.49
608.917	7.57
609.253	7.64
609.588	7.7
609.924	7.69
610.26	7.65
610.595	7.67
610.931	7.65
611.266	7.68
611.601	7.6
611.937	7.75
612.272	7.81
612.607	7.8
612.942	7.87
613.278	8.03
613.613	7.96
613.948	7.76
614.283	7.8
614.618	7.71
614.953	7.73
615.287	7.74
615.622	7.79
615.957	7.73
616.292	7.79
616.626	7.77
616.961	7.81
617.295	7.83
617.63	7.9
617.964	7.97
618.299	8.03
618.633	8.15
618.968	8.17
619.302	8.16
619.636	8.19
619.97	8.14
620.304	8.18
620.638	8.25
620.972	8.4
621.306	8.33
621.64	8.37
621.974	8.44
622.308	8.44
622.642	8.29
622.976	8.27
623.309	8.24
623.643	8.01
623.977	8.16
624.31	8.23
624.644	8.31
624.977	8.41
625.31	8.64
625.644	8.57
625.977	8.57
626.31	8.54
626.643	8.6
626.977	8.56
627.31	8.54
627.643	8.64
627.976	8.71
628.309	8.72
628.642	8.74
628.974	8.75
629.307	8.7
629.64	8.82
629.973	8.83
630.305	8.85
630.638	8.9
630.971	9.1
631.303	8.96
631.636	8.99
631.968	9.06
632.3	9.19
632.633	9.17
632.965	9.14
633.297	9.16
633.629	9.22
633.961	9.28
634.293	9.3
634.625	9.48
634.957	9.36
635.289	9.33
635.621	9.31
635.953	9.26
636.285	9.14
636.617	9.43
636.948	9.38
637.28	9.37
637.611	9.23
637.943	9.27
638.274	9.08
638.606	9.07
638.937	9.02
639.269	9.22
639.6	9.33
639.931	9.41
640.262	9.47
640.593	9.51
640.924	9.41
641.255	9.54
641.586	9.65
641.917	9.77
642.248	9.84
642.579	10.16
642.91	9.99
643.24	9.79
643.571	9.72
643.902	9.84
644.232	9.59
644.563	9.74
644.893	9.9
645.224	10.11
645.554	10.14
645.884	10.26
646.215	10.32
646.545	10.41
646.875	10.38
647.205	10.12
647.535	10.13
647.865	10.07
648.195	10
648.525	9.85
648.855	10.06
649.185	9.96
649.515	9.84
649.844	9.97
650.174	9.94
650.504	9.94
650.833	9.96
651.163	10.01
651.492	9.94
651.822	10.08
652.151	10
652.48	10.1
652.81	10.17
653.139	10.09
653.468	10
653.797	10.2
654.126	10.12
654.455	10.02
654.784	10.07
655.113	10.18
655.442	10.19
655.771	10.12
656.099	10.22
656.428	10.21
656.757	10.19
657.085	10.16
657.414	10.21
657.742	10.26
658.071	10.28
658.399	10.36
658.728	10.36
659.056	10.41
659.384	10.5
659.712	10.52
660.04	10.61
660.369	10.67
660.697	10.74
661.025	10.65
661.353	10.64
661.68	10.66
662.008	10.4
662.336	10.38
662.664	10.45
662.991	10.48
663.319	10.21
663.647	10.31
663.974	10.39
664.302	10.37
664.629	10.31
664.956	10.43
665.284	10.49
665.611	10.54
665.938	10.51
666.265	10.66
666.593	10.74
666.92	10.94
667.247	10.85
667.574	10.85
667.9	10.8
668.227	10.84
668.554	10.74
668.881	10.81
669.208	10.94
669.534	10.94
669.861	11.03
670.187	10.89
670.514	10.7
670.84	10.51
671.167	10.46
671.493	10.42
671.819	10.54
672.146	10.69
672.472	10.71
672.798	10.69
673.124	10.72
673.45	10.75
673.776	10.84
674.102	10.88
674.428	10.88
674.754	10.71
675.079	10.9
675.405	10.85
675.731	11.07
676.056	11.27
676.382	11.39
676.707	11.38
677.033	11.23
677.358	11.06
677.684	11.1
678.009	10.92
678.334	10.51
678.659	10.55
678.985	10.7
679.31	10.83
679.635	11.03
679.96	11.29
680.285	11.59
680.609	11.49
680.934	11.34
681.259	11.25
681.584	11.22
681.908	11.08
682.233	11.29
682.558	11.58
682.882	11.7
683.207	11.93
683.531	11.94
683.855	11.92
684.18	12.07
684.504	12.39
684.828	12.48
685.152	12.66
685.476	12.75
685.8	12.62
686.124	12.47
686.448	12.43
686.772	12.52
687.096	12.64
687.42	12.63
687.744	12.77
688.067	13.23
688.391	13.54
688.714	13.68
689.038	13.97
689.361	14.1
689.685	13.87
690.008	13.72
690.331	13.79
690.655	13.73
690.978	13.96
691.301	14.23
691.624	14.36
691.947	14.49
692.27	14.68
692.593	14.58
692.916	14.71
693.239	14.79
693.561	14.77
693.884	15.13
694.207	15.17
694.529	15.06
694.852	15.34
695.174	15.48
695.497	15.36
695.819	15.65
696.142	15.85
696.464	15.92
696.786	16.03
697.108	16.31
697.43	16.18
697.753	16.58
698.075	16.47
698.397	16.56
698.718	16.48
699.04	16.56
699.362	16.37
699.684	16.54
700.006	16.64
700.327	17.01
700.649	17.19
700.97	17.28
701.292	17.19
701.613	17.27
701.935	17.12
702.256	17.16
702.577	17.27
702.898	17.69
703.22	17.55
703.541	17.17
703.862	17.26
704.183	17.19
704.504	17.21
704.825	17.35
705.145	17.8
705.466	18.14
705.787	18.56
706.108	18.55
706.428	18.99
706.749	18.84
707.069	18.46
707.39	17.91
707.71	17.92
708.03	17.75
708.351	17.83
708.671	18.16
708.991	18.81
709.311	19.02
709.631	19.4
709.951	19.5
710.271	19.87
710.591	19.57
710.911	19.68
711.231	19.4
711.551	19.31
711.87	19.11
712.19	19.46
712.51	19.21
712.829	19.23
713.149	19.7
713.468	19.7
713.787	19.48
714.107	19.76
714.426	19.95
714.745	19.63
715.064	19.72
715.383	19.95
715.702	20.07
716.021	19.83
716.34	19.93
716.659	19.74
716.978	19.86
717.297	19.74
717.615	20.11
717.934	20.32
718.253	20.61
718.571	20.65
718.89	21.3
719.208	21.35
719.527	21.18
719.845	21.56
720.163	21.58
720.481	20.78
720.8	20.53
721.118	20.44
721.436	20.13
721.754	20.1
722.072	20.18
722.39	20.54
722.707	20.84
723.025	20.9
723.343	21.16
723.661	21.4
723.978	21.22
724.296	21.76
724.613	21.6
724.931	22.21
725.248	22.29
725.565	22.73
725.883	22.33
726.2	22.32
726.517	21.53
726.834	21.74
727.151	21.56
727.468	21.87
727.785	22.22
728.102	22.67
728.419	22.35
728.736	22.44
729.052	22.2
729.369	22.13
729.686	21.42
730.002	21.85
730.319	21.57
730.635	21.69
730.951	21.93
731.268	22.57
731.584	23.02
731.9	22.95
732.216	23.25
732.533	23.01
732.849	23
733.165	22.92
733.481	22.84
733.796	22.49
734.112	23.06
734.428	22.89
734.744	22.72
735.059	23.67
735.375	23.77
735.691	23.17
736.006	23.34
736.322	23.16
736.637	23.08
736.952	23.43
737.268	24.02
737.583	23.96
737.898	23.94
738.213	23.8
738.528	23.84
738.843	23.63
739.158	24.09
739.473	24.65
739.788	24.82
740.102	24.92
740.417	25.12
740.732	25.03
741.046	24.79
741.361	24.44
741.675	24.52
741.99	24.84
742.304	25.44
742.618	24.97
742.933	25.39
743.247	25.21
743.561	25.26
743.875	24.64
744.189	25.39
744.503	25.1
744.817	25.14
745.131	24.49
745.445	24.4
745.758	24.06
746.072	24.4
746.386	24.88
746.699	24.51
747.013	24.61
747.326	24.69
747.64	24.6
747.953	24.41
748.266	25.4
748.58	26.08
748.893	26.68
749.206	26.66
749.519	26.76
749.832	26.53
750.145	26.59
750.458	26.07
750.771	26.33
751.083	26.72
751.396	26.42
751.709	25.7
752.021	25.67
752.334	25.54
752.646	25.01
752.959	25.15
753.271	25.6
753.584	26.79
753.896	26.89
754.208	27.12
754.52	27.82
754.832	28.17
755.144	28.01
755.456	28.4
755.768	28.34
756.08	27.83
756.392	27.58
756.704	26.88
757.015	27.76
757.327	28.01
757.638	28.88
757.95	28.91
758.261	28.64
758.573	27.78
758.884	27.88
759.195	27.37
759.507	27.26
759.818	27.81
760.129	27.27
760.44	27.38
760.751	27.7
761.062	28.23
761.373	27.99
761.684	28.79
761.994	28.71
762.305	29.11
762.616	28.9
762.926	29.09
763.237	29.19
763.547	29.27
763.858	29.16
764.168	29.53
764.478	30.04
764.789	30.56
765.099	30.23
765.409	29.79
765.719	29.29
766.029	29.53
766.339	28.79
766.649	29.49
766.959	30.51
767.269	30.77
767.578	30.57
767.888	30.92
768.198	30.67
768.507	29.28
768.817	28.63
769.126	27.96
769.435	27.2
769.745	27.16
770.054	28.21
770.363	29.4
770.672	29.81
770.981	30.89
771.29	32.19
771.599	31.34
771.908	30.98
772.217	29.64
772.526	30.44
772.835	28.78
773.143	29.1
773.452	28.62
773.76	30.28
774.069	29.01
774.377	30.2
774.686	30.6
774.994	31.6
775.302	30.8
775.611	31.32
775.919	31.18
776.227	31.48
776.535	31.87
776.843	32.48
777.151	31.36
777.459	31.72
777.766	32.86
778.074	31.91
778.382	30.81
778.689	31.61
778.997	30.77
779.304	29.85
779.612	30.03
779.919	30.76
780.227	31.39
780.534	31.87
780.841	30.08
781.148	30.26
781.455	31.19
781.762	30.24
782.069	29.14
782.376	30.3
782.683	32.03
782.99	32.3
783.296	33.97
783.603	36.03
783.91	35.82
784.216	34.63
784.523	34.55
784.829	33.5
785.136	33.46
785.442	32.94
785.748	32.74
786.054	31.49
786.36	31.98
786.667	31.53
786.973	32.86
787.278	33.68
787.584	34.2
787.89	34.81
788.196	33.52
788.502	32.72
788.807	32.56
789.113	32.18
789.418	31.72
789.724	32.88
790.029	34.49
790.335	35.41
790.64	37.54
790.945	38.08
791.25	38.9
791.556	38.26
791.861	36.8
792.166	36.41
792.471	34.63
792.775	33.94
793.08	34.72
793.385	34.87
793.69	34.32
793.994	36.65
794.299	36.8
794.603	36.96
794.908	37.13
795.212	37.37
795.517	35.58
795.821	35.56
796.125	34.96
796.429	35.12
796.733	33.98
797.037	33.49
797.341	32.57
797.645	32.58
797.949	31.82
798.253	31.04
798.557	32.07
798.86	32.95
799.164	34.16
799.468	34.9
799.771	35.32
800.074	34.43
800.378	33.87
800.681	32.13
800.984	32.91
801.288	34.08
801.591	35.14
801.894	34.6
802.197	34.23
802.5	33.09
802.803	32.86
803.105	31.69
803.408	33.17
803.711	33.09
804.014	32.81
804.316	31.97
804.619	33.82
804.921	33.47
805.224	34.98
805.526	36.26
805.828	36.2
806.13	34.73
806.433	35.2
806.735	32.74
807.037	31.88
807.339	32.14
807.641	32.56
807.942	32.35
808.244	34.23
808.546	34.24
808.848	35.47
809.149	36.4
809.451	34.74
809.752	35.3
810.054	33.84
810.355	33.77
810.656	35.09
810.958	37.29
811.259	38.03
811.56	37.86
811.861	38.98
812.162	36.57
812.463	34.83
812.764	33.75
813.065	36
813.365	35.17
813.666	36.42
813.967	37.12
814.267	35.36
814.568	35.96
814.868	34.69
815.169	36.91
815.469	37.81
815.769	40.46
816.069	40.78
816.37	39.1
816.67	37.42
816.97	37.57
817.27	36.23
817.57	35.52
817.869	38.91
818.169	37.5
818.469	37.63
818.768	39.11
819.068	39.06
819.368	37.11
819.667	37.05
819.966	36.65
820.266	35.97
820.565	36.08
820.864	35.68
821.163	38.13
821.463	37.5
821.762	37.55
822.06	38.82
822.359	40.27
822.658	40.31
822.957	40.98
823.256	41.26
823.554	40.61
823.853	40.25
824.152	40.25
824.45	39.76
824.748	39.69
825.047	40.16
825.345	40.59
825.643	40.34
825.941	40.86
826.239	40.95
826.538	40.3
826.836	39.65
827.133	39.28
827.431	40.52
827.729	40.44
828.027	40.29
828.324	41.81
828.622	42.05
828.92	41.21
829.217	40.98
829.514	41.16
829.812	39.85
830.109	37.91
830.406	38.18
830.703	37.77
831.001	38.3
831.298	40.11
831.595	42.32
831.891	42.73
832.188	43.62
832.485	40.19
832.782	38.88
833.078	41.36
833.375	38.96
833.672	38.33
833.968	42.23
834.264	41.59
834.561	40.69
834.857	40.43
835.153	40.09
835.449	40.47
835.746	41.27
836.042	40.58
836.338	41.86
836.633	43.28
836.929	41.59
837.225	40.05
837.521	42.69
837.816	45.26
838.112	44.36
838.408	46.4
838.703	49.35
838.998	46.94
839.294	42.94
839.589	43.61
839.884	44.91
840.179	44.69
840.474	44.41
840.77	43.36
841.064	44.71
841.359	40.56
841.654	38.86
841.949	36
842.244	39.91
842.538	36.76
842.833	41.91
843.127	44.17
843.422	47.47
843.716	41.61
844.011	47.43
844.305	44.62
844.599	38.18
844.893	39.15
845.187	43.95
845.481	35.33
845.775	31.86
846.069	34.59
846.363	29.73
846.657	23.71
846.95	22.83
847.244	24.41
847.537	31.4
847.831	38.5
848.124	25.03
848.418	29.22
848.711	33.42
849.004	25.72
849.297	20.91
849.591	46.22
849.884	49.02
850.177	35.61
850.47	38.05
850.762	41.15
851.055	33.44
851.348	37.71
851.641	64.82
851.933	50.47
852.226	43.88
852.518	42.43
852.811	43.48
853.103	31.15
853.395	45.6
853.687	44.84
853.98	47.34
854.272	44.31
854.564	41.54
854.856	32.82
855.148	29.83
855.439	31.91
855.731	26.29
856.023	21.1
856.314	24.96
856.606	24.76
856.898	26.73
857.189	18.78
857.48	23.64
857.772	29.97
858.063	47.58
858.354	66.95
858.645	67.34
858.936	69.61
859.227	56.67
859.518	55.96
859.809	15.06
860.1	18.75
860.391	-1.31
860.681	7.71
860.972	-16.23
861.262	0.55
861.553	-0.41
861.843	35.23
862.134	20.81
862.424	29.02
862.714	26.03
863.004	45.08
863.294	43.75
863.584	42.95
863.874	46.14
864.164	35.26
864.454	-13.26
864.744	-36.87
865.034	81.44
865.323	119.27
865.613	181.64
865.902	137.89
866.192	101.37
866.481	77.49
866.77	72.73
867.06	73.66
867.349	53.61
867.638	91.97
867.927	151.26
868.216	110.07
868.505	63.65
868.794	133.16
869.082	121.21
869.371	87.15
869.66	85.99
869.948	48.61
870.237	40.58
870.525	38.68
870.814	70.39
871.102	69.17
871.39	95.1
871.678	32.78
871.967	14.43
872.255	43.6
872.543	10.45
872.831	109.58
873.118	-234.56
873.406	-65.18
873.694	42.17
873.982	90.08
874.269	-304.16
874.557	-323.65
874.844	-661.56
875.132	477.51
875.419	571.73
