Data from Ci-i1_Reflection_15-56-19-379.txt Node
Date: Tue Aug 16 15:56:19 CEST 2022
User: IDIV
Spectrometer: FLMS14958
Trigger mode: 0
Integration Time (sec): 1.000000E-1
Scans to average: 10
Electric dark correction enabled: true
Nonlinearity correction enabled: true
Boxcar width: 2
XAxis mode: Wavelengths
Number of Pixels in Spectrum: 2048
>>>>>Begin Spectral Data<<<<<
179.491	-369.36
179.869	-161.74
180.247	-176.4
180.625	-159.11
181.003	-617.03
181.381	-219.88
181.759	-782.8
182.136	633.28
182.514	201.45
182.892	-340.48
183.27	-21.63
183.647	-73.34
184.025	-179.96
184.403	-107.32
184.78	-93.5
185.158	-58.08
185.536	165.91
185.913	178.12
186.291	52.16
186.668	40.95
187.046	16.66
187.423	-144.23
187.801	42.36
188.178	-8.6
188.556	6.67
188.933	11.31
189.31	4.43
189.688	11.98
190.065	6.91
190.442	-3.51
190.82	-10.13
191.197	-14.42
191.574	-14.44
191.951	-25.19
192.329	-15.19
192.706	-9.16
193.083	-5.76
193.46	-4.59
193.837	8.15
194.214	-1.11
194.591	-18.56
194.968	-19.21
195.345	-38.36
195.722	-35.57
196.099	-21.42
196.476	-28.9
196.853	-16.96
197.23	9.46
197.607	13.76
197.984	11.01
198.36	24.46
198.737	22.55
199.114	7.5
199.491	6.39
199.867	2.19
200.244	-2.41
200.621	-22.61
200.997	-35.08
201.374	-24.14
201.75	-29.85
202.127	-28.85
202.504	-3.43
202.88	5.74
203.257	-0.82
203.633	10.24
204.01	12.1
204.386	1.39
204.762	11.59
205.139	12.4
205.515	0.97
205.891	4.09
206.268	13.81
206.644	-11.47
207.02	-9.83
207.396	-1.27
207.773	-20.08
208.149	-24.49
208.525	-4.35
208.901	5.36
209.277	8.35
209.653	18.28
210.029	13.45
210.405	1.85
210.781	-4.11
211.157	-5.38
211.533	-13.34
211.909	-18.59
212.285	-0.97
212.661	-5.38
213.037	-7.76
213.413	-0.26
213.789	9.42
214.164	-0.89
214.54	2
214.916	12.1
215.292	13.26
215.667	12.25
216.043	7.16
216.419	-4.35
216.794	-14.08
217.17	-21.63
217.545	-23.56
217.921	-12.05
218.296	-2.1
218.672	-4.02
219.047	-1.53
219.423	7.85
219.798	5.11
220.174	-1.59
220.549	2.36
220.924	6.64
221.3	-2.14
221.675	-1.29
222.05	-2.14
222.425	-3.54
222.801	-3.89
223.176	2.57
223.551	-0.83
223.926	2.5
224.301	-1.51
224.676	-2.42
225.051	-9.21
225.426	-9.14
225.801	-11.27
226.176	-6.58
226.551	-5.24
226.926	-1.12
227.301	5.72
227.676	7.59
228.051	8.36
228.426	4.38
228.801	2.36
229.175	1.34
229.55	1.32
229.925	0.45
230.3	1.64
230.674	3.3
231.049	3.17
231.424	3.08
231.798	3.6
232.173	3.38
232.547	1.76
232.922	1.52
233.296	1.18
233.671	0.85
234.045	2.36
234.42	3.66
234.794	4.54
235.168	4.74
235.543	5.31
235.917	4.17
236.291	2.45
236.666	1.85
237.04	0.86
237.414	0.87
237.788	1.92
238.162	2.7
238.537	3.03
238.911	4.77
239.285	3.26
239.659	2.46
240.033	3.41
240.407	2.62
240.781	1.71
241.155	1.82
241.529	2.09
241.903	1.27
242.277	1.61
242.65	1.99
243.024	2.12
243.398	1.95
243.772	2.35
244.146	2.43
244.519	2.1
244.893	2.17
245.267	2.41
245.64	2.32
246.014	2.41
246.387	2.89
246.761	2.85
247.135	2.81
247.508	2.63
247.882	2.61
248.255	2.52
248.628	2.45
249.002	2.44
249.375	2.53
249.749	2.43
250.122	2.27
250.495	2.16
250.868	1.94
251.242	1.55
251.615	1.44
251.988	1.47
252.361	1.86
252.734	1.9
253.107	2.03
253.481	2.1
253.854	2.38
254.227	2.22
254.6	2.28
254.973	2.92
255.346	2.68
255.718	2.34
256.091	2.24
256.464	2.32
256.837	1.79
257.21	2.15
257.583	2.4
257.955	2.57
258.328	2.35
258.701	2.31
259.074	2.28
259.446	2.16
259.819	1.99
260.191	2.08
260.564	2.05
260.936	2.06
261.309	1.97
261.681	1.91
262.054	1.87
262.426	2.01
262.799	2.01
263.171	2.04
263.543	2.28
263.916	2.1
264.288	1.77
264.66	1.68
265.033	1.94
265.405	1.82
265.777	1.87
266.149	2.03
266.521	1.87
266.893	1.88
267.265	1.89
267.637	2.02
268.009	2.17
268.381	2.31
268.753	1.99
269.125	1.98
269.497	1.79
269.869	1.73
270.241	1.46
270.613	1.63
270.985	1.63
271.356	1.88
271.728	1.71
272.1	1.92
272.471	2.11
272.843	2.15
273.215	2.11
273.586	2.19
273.958	2.07
274.329	2.21
274.701	2.25
275.072	2.2
275.444	2.28
275.815	2.42
276.187	2.06
276.558	2.05
276.929	2.1
277.301	1.96
277.672	1.85
278.043	1.92
278.415	2
278.786	1.96
279.157	2.13
279.528	2.23
279.899	2.43
280.27	2.37
280.641	2.46
281.012	2.45
281.383	2.51
281.754	2.5
282.125	2.36
282.496	2.41
282.867	2.34
283.238	2.36
283.609	2.15
283.98	2.16
284.35	1.97
284.721	1.88
285.092	1.85
285.462	1.97
285.833	2.08
286.204	2
286.574	2.1
286.945	1.97
287.315	1.8
287.686	1.72
288.056	1.88
288.427	1.76
288.797	1.58
289.168	1.56
289.538	1.67
289.908	1.66
290.279	1.82
290.649	2.13
291.019	2.33
291.39	2.22
291.76	2.1
292.13	2.08
292.5	2.01
292.87	1.85
293.24	1.96
293.61	2.14
293.98	2
294.35	2.15
294.72	2.12
295.09	1.72
295.46	1.65
295.83	1.64
296.2	1.45
296.57	1.44
296.939	1.68
297.309	1.62
297.679	1.64
298.049	1.84
298.418	1.97
298.788	2.03
299.158	2.24
299.527	2.37
299.897	2.21
300.266	2.14
300.636	2.25
301.005	2.13
301.375	1.98
301.744	2.06
302.113	2.12
302.483	1.84
302.852	1.85
303.221	2.02
303.591	2.03
303.96	1.94
304.329	2.17
304.698	2.08
305.067	1.69
305.436	1.67
305.806	1.75
306.175	1.46
306.544	1.52
306.913	2.03
307.282	1.92
307.65	1.95
308.019	2.27
308.388	2.19
308.757	2.22
309.126	2.16
309.495	1.88
309.863	1.6
310.232	1.52
310.601	1.48
310.969	1.52
311.338	1.68
311.707	1.67
312.075	1.88
312.444	1.69
312.812	1.5
313.181	1.42
313.549	1.71
313.918	1.64
314.286	1.68
314.654	1.72
315.023	1.7
315.391	1.59
315.759	1.37
316.127	1.29
316.496	1.43
316.864	1.52
317.232	1.42
317.6	1.46
317.968	1.58
318.336	1.49
318.704	1.59
319.072	1.58
319.44	1.77
319.808	1.79
320.176	1.77
320.544	1.83
320.912	1.92
321.28	1.95
321.647	1.95
322.015	2.09
322.383	1.98
322.75	1.73
323.118	1.78
323.486	1.74
323.853	1.89
324.221	1.89
324.588	2.1
324.956	2.05
325.323	2.04
325.691	1.99
326.058	1.64
326.426	1.8
326.793	1.82
327.16	1.79
327.528	1.52
327.895	1.48
328.262	1.29
328.629	1.17
328.996	1.13
329.363	1.03
329.731	1.39
330.098	1.03
330.465	0.82
330.832	0.71
331.199	1.17
331.566	1.27
331.932	1.48
332.299	1.69
332.666	1.75
333.033	1.43
333.4	1.39
333.766	1.55
334.133	1.39
334.5	1.46
334.867	1.61
335.233	1.57
335.6	1.62
335.966	1.76
336.333	1.8
336.699	1.76
337.066	1.84
337.432	1.63
337.799	1.65
338.165	1.85
338.531	1.91
338.898	1.6
339.264	1.65
339.63	1.92
339.996	1.54
340.363	1.62
340.729	1.77
341.095	1.7
341.461	1.45
341.827	1.62
342.193	1.58
342.559	1.73
342.925	1.7
343.291	1.77
343.657	1.97
344.023	1.91
344.388	1.68
344.754	1.78
345.12	1.83
345.486	1.54
345.851	1.63
346.217	1.66
346.583	1.73
346.948	1.65
347.314	1.71
347.679	1.6
348.045	1.92
348.41	1.82
348.776	1.68
349.141	1.58
349.507	1.68
349.872	1.44
350.237	1.37
350.603	1.57
350.968	1.66
351.333	1.6
351.698	1.78
352.063	1.85
352.428	1.62
352.794	1.68
353.159	1.75
353.524	1.71
353.889	1.76
354.254	1.84
354.618	1.63
354.983	1.34
355.348	1.18
355.713	1.2
356.078	1.05
356.443	1.24
356.807	1.42
357.172	1.34
357.537	1.31
357.901	1.42
358.266	1.36
358.63	1.44
358.995	1.43
359.359	1.33
359.724	1.53
360.088	1.58
360.453	1.4
360.817	1.5
361.181	1.64
361.546	1.6
361.91	1.65
362.274	1.65
362.638	1.64
363.003	1.64
363.367	1.48
363.731	1.39
364.095	1.42
364.459	1.46
364.823	1.41
365.187	1.41
365.551	1.4
365.915	1.36
366.279	1.33
366.642	1.31
367.006	1.42
367.37	1.6
367.734	1.62
368.097	1.61
368.461	1.57
368.825	1.62
369.188	1.28
369.552	1.39
369.915	1.54
370.279	1.49
370.642	1.39
371.006	1.44
371.369	1.48
371.732	1.33
372.096	1.34
372.459	1.39
372.822	1.6
373.186	1.54
373.549	1.63
373.912	1.8
374.275	1.72
374.638	1.47
375.001	1.42
375.364	1.3
375.727	1.11
376.09	1.21
376.453	1.43
376.816	1.53
377.179	1.59
377.542	1.74
377.904	1.76
378.267	1.69
378.63	1.69
378.993	1.58
379.355	1.6
379.718	1.46
380.08	1.43
380.443	1.38
380.806	1.52
381.168	1.45
381.53	1.51
381.893	1.52
382.255	1.36
382.618	1.18
382.98	1.02
383.342	0.98
383.704	0.96
384.067	1.16
384.429	1.32
384.791	1.49
385.153	1.58
385.515	1.57
385.877	1.5
386.239	1.52
386.601	1.45
386.963	1.27
387.325	1.29
387.687	1.26
388.049	1.17
388.41	1.17
388.772	1.34
389.134	1.32
389.496	1.4
389.857	1.54
390.219	1.47
390.58	1.41
390.942	1.42
391.303	1.3
391.665	1.23
392.026	1.41
392.388	1.43
392.749	1.48
393.111	1.61
393.472	1.69
393.833	1.64
394.194	1.64
394.556	1.64
394.917	1.59
395.278	1.51
395.639	1.44
396	1.49
396.361	1.46
396.722	1.56
397.083	1.47
397.444	1.48
397.805	1.25
398.166	1.19
398.526	1.08
398.887	1.15
399.248	1.12
399.609	1.33
399.969	1.34
400.33	1.3
400.691	1.31
401.051	1.4
401.412	1.29
401.772	1.37
402.133	1.36
402.493	1.36
402.853	1.36
403.214	1.42
403.574	1.35
403.934	1.36
404.295	1.44
404.655	1.48
405.015	1.46
405.375	1.53
405.735	1.55
406.095	1.43
406.455	1.36
406.815	1.38
407.175	1.32
407.535	1.33
407.895	1.41
408.255	1.43
408.615	1.45
408.975	1.42
409.334	1.46
409.694	1.44
410.054	1.38
410.413	1.37
410.773	1.41
411.133	1.35
411.492	1.31
411.852	1.32
412.211	1.4
412.571	1.41
412.93	1.47
413.289	1.42
413.649	1.49
414.008	1.5
414.367	1.58
414.726	1.56
415.086	1.53
415.445	1.52
415.804	1.4
416.163	1.43
416.522	1.43
416.881	1.61
417.24	1.58
417.599	1.52
417.958	1.44
418.316	1.4
418.675	1.32
419.034	1.31
419.393	1.35
419.751	1.3
420.11	1.32
420.469	1.33
420.827	1.33
421.186	1.35
421.544	1.39
421.903	1.34
422.261	1.38
422.62	1.39
422.978	1.34
423.336	1.38
423.695	1.47
424.053	1.47
424.411	1.45
424.769	1.47
425.128	1.45
425.486	1.46
425.844	1.42
426.202	1.42
426.56	1.43
426.918	1.42
427.276	1.42
427.634	1.31
427.991	1.32
428.349	1.31
428.707	1.31
429.065	1.25
429.423	1.41
429.78	1.47
430.138	1.47
430.495	1.4
430.853	1.4
431.211	1.37
431.568	1.38
431.925	1.36
432.283	1.42
432.64	1.41
432.998	1.38
433.355	1.35
433.712	1.38
434.069	1.4
434.427	1.42
434.784	1.34
435.141	1.36
435.498	1.4
435.855	1.35
436.212	1.3
436.569	1.39
436.926	1.34
437.283	1.25
437.64	1.25
437.996	1.29
438.353	1.31
438.71	1.36
439.067	1.41
439.423	1.43
439.78	1.46
440.137	1.44
440.493	1.41
440.85	1.36
441.206	1.33
441.563	1.28
441.919	1.29
442.275	1.32
442.632	1.39
442.988	1.45
443.344	1.47
443.7	1.49
444.057	1.4
444.413	1.39
444.769	1.35
445.125	1.38
445.481	1.36
445.837	1.35
446.193	1.33
446.549	1.36
446.905	1.36
447.26	1.39
447.616	1.47
447.972	1.45
448.328	1.41
448.683	1.39
449.039	1.4
449.395	1.34
449.75	1.35
450.106	1.39
450.461	1.39
450.817	1.27
451.172	1.29
451.527	1.31
451.883	1.32
452.238	1.34
452.593	1.41
452.949	1.41
453.304	1.45
453.659	1.4
454.014	1.4
454.369	1.44
454.724	1.51
455.079	1.43
455.434	1.42
455.789	1.4
456.144	1.4
456.499	1.3
456.853	1.33
457.208	1.38
457.563	1.43
457.918	1.42
458.272	1.42
458.627	1.44
458.981	1.48
459.336	1.44
459.69	1.43
460.045	1.44
460.399	1.42
460.754	1.39
461.108	1.39
461.462	1.38
461.817	1.44
462.171	1.47
462.525	1.46
462.879	1.47
463.233	1.48
463.587	1.4
463.941	1.35
464.295	1.33
464.649	1.38
465.003	1.33
465.357	1.44
465.711	1.47
466.065	1.52
466.418	1.5
466.772	1.59
467.126	1.5
467.479	1.57
467.833	1.54
468.186	1.56
468.54	1.54
468.893	1.57
469.247	1.49
469.6	1.51
469.954	1.46
470.307	1.4
470.66	1.33
471.013	1.35
471.367	1.36
471.72	1.38
472.073	1.49
472.426	1.56
472.779	1.52
473.132	1.54
473.485	1.53
473.838	1.51
474.191	1.51
474.544	1.58
474.896	1.57
475.249	1.63
475.602	1.6
475.955	1.48
476.307	1.5
476.66	1.38
477.012	1.33
477.365	1.33
477.717	1.39
478.07	1.38
478.422	1.53
478.775	1.55
479.127	1.59
479.479	1.64
479.831	1.59
480.184	1.54
480.536	1.56
480.888	1.53
481.24	1.48
481.592	1.5
481.944	1.46
482.296	1.38
482.648	1.42
483	1.47
483.352	1.45
483.703	1.45
484.055	1.47
484.407	1.48
484.759	1.49
485.11	1.54
485.462	1.57
485.813	1.59
486.165	1.59
486.516	1.57
486.868	1.54
487.219	1.54
487.571	1.54
487.922	1.5
488.273	1.5
488.624	1.52
488.976	1.51
489.327	1.52
489.678	1.57
490.029	1.62
490.38	1.57
490.731	1.57
491.082	1.57
491.433	1.52
491.784	1.47
492.135	1.53
492.485	1.55
492.836	1.57
493.187	1.64
493.537	1.71
493.888	1.7
494.239	1.67
494.589	1.63
494.94	1.62
495.29	1.54
495.641	1.56
495.991	1.63
496.341	1.65
496.692	1.64
497.042	1.62
497.392	1.66
497.742	1.63
498.092	1.61
498.442	1.6
498.793	1.62
499.143	1.53
499.493	1.51
499.842	1.48
500.192	1.47
500.542	1.44
500.892	1.51
501.242	1.55
501.591	1.58
501.941	1.6
502.291	1.65
502.64	1.66
502.99	1.59
503.339	1.66
503.689	1.7
504.038	1.7
504.388	1.66
504.737	1.69
505.086	1.63
505.436	1.62
505.785	1.59
506.134	1.58
506.483	1.56
506.832	1.54
507.181	1.5
507.53	1.49
507.879	1.52
508.228	1.51
508.577	1.54
508.926	1.53
509.275	1.55
509.624	1.59
509.972	1.65
510.321	1.68
510.67	1.73
511.018	1.75
511.367	1.7
511.715	1.67
512.064	1.63
512.412	1.63
512.761	1.66
513.109	1.65
513.457	1.68
513.806	1.72
514.154	1.66
514.502	1.62
514.85	1.59
515.198	1.56
515.546	1.48
515.894	1.54
516.242	1.52
516.59	1.58
516.938	1.57
517.286	1.59
517.634	1.62
517.981	1.66
518.329	1.62
518.677	1.63
519.024	1.66
519.372	1.6
519.72	1.6
520.067	1.63
520.415	1.66
520.762	1.71
521.109	1.76
521.457	1.77
521.804	1.76
522.151	1.78
522.498	1.75
522.846	1.75
523.193	1.74
523.54	1.68
523.887	1.66
524.234	1.61
524.581	1.59
524.928	1.57
525.275	1.61
525.621	1.6
525.968	1.63
526.315	1.66
526.662	1.7
527.008	1.72
527.355	1.71
527.701	1.7
528.048	1.67
528.394	1.64
528.741	1.64
529.087	1.65
529.434	1.69
529.78	1.71
530.126	1.74
530.472	1.8
530.819	1.83
531.165	1.8
531.511	1.8
531.857	1.79
532.203	1.74
532.549	1.65
532.895	1.62
533.241	1.61
533.586	1.6
533.932	1.63
534.278	1.69
534.624	1.74
534.969	1.79
535.315	1.84
535.661	1.83
536.006	1.81
536.352	1.77
536.697	1.76
537.042	1.77
537.388	1.77
537.733	1.79
538.078	1.84
538.424	1.82
538.769	1.87
539.114	1.86
539.459	1.84
539.804	1.79
540.149	1.78
540.494	1.73
540.839	1.73
541.184	1.75
541.529	1.78
541.873	1.78
542.218	1.8
542.563	1.82
542.908	1.81
543.252	1.81
543.597	1.85
543.941	1.82
544.286	1.82
544.63	1.83
544.975	1.85
545.319	1.81
545.663	1.8
546.007	1.84
546.352	1.79
546.696	1.74
547.04	1.74
547.384	1.75
547.728	1.74
548.072	1.81
548.416	1.9
548.76	1.89
549.104	1.95
549.448	1.91
549.791	1.9
550.135	1.87
550.479	1.89
550.823	1.92
551.166	1.94
551.51	2.02
551.853	2.02
552.197	2.06
552.54	1.99
552.883	1.89
553.227	1.87
553.57	1.83
553.913	1.78
554.257	1.8
554.6	1.89
554.943	1.84
555.286	1.91
555.629	1.95
555.972	1.89
556.315	1.86
556.658	1.86
557.001	1.9
557.343	1.87
557.686	1.92
558.029	1.99
558.371	2
558.714	1.95
559.057	2.05
559.399	2.08
559.742	2.05
560.084	2.07
560.427	2.06
560.769	1.95
561.111	1.89
561.453	1.96
561.796	1.91
562.138	1.97
562.48	1.99
562.822	2.07
563.164	2.06
563.506	2
563.848	1.96
564.19	1.99
564.532	1.94
564.874	1.89
565.215	2.01
565.557	2
565.899	1.97
566.24	2
566.582	2.04
566.924	2.02
567.265	2.03
567.606	2.01
567.948	2.02
568.289	2.01
568.631	2.01
568.972	2
569.313	2.03
569.654	2.04
569.995	2.06
570.336	1.99
570.677	1.98
571.018	1.92
571.359	1.89
571.7	1.84
572.041	1.9
572.382	1.9
572.723	1.97
573.064	2
573.404	2.06
573.745	2.08
574.085	2.13
574.426	2.21
574.766	2.13
575.107	2.17
575.447	2.1
575.788	2.05
576.128	1.97
576.468	2.02
576.808	2.05
577.149	2.12
577.489	2.21
577.829	2.21
578.169	2.2
578.509	2.07
578.849	2.03
579.189	1.97
579.529	2.01
579.868	2.05
580.208	2.07
580.548	2.13
580.887	2.15
581.227	2.18
581.567	2.15
581.906	2.21
582.246	2.19
582.585	2.15
582.925	2.09
583.264	2.16
583.603	2.14
583.942	2.12
584.282	2.14
584.621	2.08
584.96	2.07
585.299	2.14
585.638	2.13
585.977	2.1
586.316	2.17
586.655	2.12
586.994	2.07
587.332	2.07
587.671	2.11
588.01	2.13
588.348	2.16
588.687	2.18
589.026	2.2
589.364	2.26
589.703	2.23
590.041	2.21
590.379	2.19
590.718	2.16
591.056	2.13
591.394	2.12
591.732	2.18
592.07	2.17
592.409	2.27
592.747	2.22
593.085	2.25
593.423	2.26
593.76	2.32
594.098	2.21
594.436	2.21
594.774	2.22
595.112	2.23
595.449	2.17
595.787	2.29
596.124	2.22
596.462	2.25
596.799	2.2
597.137	2.27
597.474	2.19
597.812	2.32
598.149	2.33
598.486	2.37
598.823	2.38
599.16	2.45
599.498	2.42
599.835	2.35
600.172	2.34
600.509	2.29
600.845	2.23
601.182	2.16
601.519	2.24
601.856	2.21
602.193	2.16
602.529	2.21
602.866	2.24
603.202	2.22
603.539	2.26
603.875	2.31
604.212	2.33
604.548	2.34
604.885	2.28
605.221	2.39
605.557	2.43
605.893	2.45
606.23	2.52
606.566	2.55
606.902	2.43
607.238	2.44
607.574	2.48
607.91	2.43
608.245	2.5
608.581	2.4
608.917	2.28
609.253	2.23
609.588	2.27
609.924	2.27
610.26	2.3
610.595	2.32
610.931	2.35
611.266	2.31
611.601	2.35
611.937	2.47
612.272	3.02
612.607	3.11
612.942	3.27
613.278	3.31
613.613	3.19
613.948	2.7
614.283	2.55
614.618	2.42
614.953	2.27
615.287	2.43
615.622	2.4
615.957	2.47
616.292	2.52
616.626	2.67
616.961	2.71
617.295	2.79
617.63	2.74
617.964	2.79
618.299	2.7
618.633	2.63
618.968	2.59
619.302	2.61
619.636	2.5
619.97	2.59
620.304	2.59
620.638	2.54
620.972	2.62
621.306	2.78
621.64	2.69
621.974	2.67
622.308	2.78
622.642	2.85
622.976	2.79
623.309	2.87
623.643	2.91
623.977	2.87
624.31	2.76
624.644	2.72
624.977	2.76
625.31	2.73
625.644	2.7
625.977	2.76
626.31	2.74
626.643	2.68
626.977	2.63
627.31	2.64
627.643	2.61
627.976	2.67
628.309	2.72
628.642	2.78
628.974	2.77
629.307	2.79
629.64	2.85
629.973	2.83
630.305	2.82
630.638	2.91
630.971	3.01
631.303	2.93
631.636	2.93
631.968	2.93
632.3	2.88
632.633	2.76
632.965	2.75
633.297	2.77
633.629	2.75
633.961	2.77
634.293	2.84
634.625	2.83
634.957	2.85
635.289	2.85
635.621	2.79
635.953	2.73
636.285	2.75
636.617	2.61
636.948	2.71
637.28	2.8
637.611	2.87
637.943	2.93
638.274	3.13
638.606	3.16
638.937	3.13
639.269	3.09
639.6	3.03
639.931	2.96
640.262	2.95
640.593	2.98
640.924	2.84
641.255	2.73
641.586	2.79
641.917	2.7
642.248	2.61
642.579	2.78
642.91	2.93
643.24	2.87
643.571	2.97
643.902	3.06
644.232	3.04
644.563	3.01
644.893	3.1
645.224	3.09
645.554	3.01
645.884	3.04
646.215	3.04
646.545	3.08
646.875	3.02
647.205	3
647.535	3.01
647.865	2.9
648.195	2.86
648.525	2.88
648.855	3.08
649.185	2.96
649.515	3.11
649.844	3.06
650.174	3.01
650.504	2.83
650.833	2.94
651.163	2.98
651.492	3.18
651.822	3.14
652.151	3.27
652.48	3.27
652.81	3.19
653.139	3.09
653.468	3.16
653.797	3.09
654.126	3.18
654.455	3.28
654.784	3.27
655.113	3.44
655.442	3.32
655.771	3.43
656.099	3.32
656.428	2.9
656.757	2.75
657.085	2.99
657.414	2.77
657.742	2.94
658.071	3.33
658.399	3.28
658.728	3.12
659.056	3.21
659.384	3.17
659.712	3.19
660.04	3.26
660.369	3.27
660.697	3.34
661.025	3.37
661.353	3.35
661.68	3.29
662.008	3.45
662.336	3.34
662.664	3.28
662.991	3.29
663.319	3.32
663.647	3.34
663.974	3.22
664.302	3.2
664.629	3.23
664.956	3.35
665.284	3.42
665.611	3.67
665.938	3.96
666.265	3.96
666.593	4
666.92	3.92
667.247	3.92
667.574	3.81
667.9	3.74
668.227	3.68
668.554	3.54
668.881	3.66
669.208	3.66
669.534	3.81
669.861	3.69
670.187	3.86
670.514	3.82
670.84	3.7
671.167	3.87
671.493	3.95
671.819	4
672.146	3.86
672.472	3.97
672.798	3.65
673.124	3.62
673.45	3.66
673.776	3.77
674.102	3.65
674.428	3.6
674.754	3.84
675.079	3.56
675.405	3.59
675.731	3.87
676.056	4.16
676.382	3.9
676.707	4.06
677.033	3.98
677.358	3.91
677.684	3.78
678.009	3.73
678.334	3.95
678.659	4.05
678.985	3.85
679.31	3.85
679.635	3.96
679.96	3.77
680.285	3.71
680.609	3.7
680.934	3.81
681.259	3.88
681.584	3.95
681.908	3.92
682.233	3.99
682.558	3.88
682.882	3.88
683.207	3.79
683.531	3.84
683.855	3.86
684.18	3.8
684.504	3.8
684.828	3.87
685.152	3.78
685.476	3.89
685.8	4.1
686.124	4.27
686.448	4.35
686.772	4.42
687.096	4.39
687.42	4.07
687.744	3.56
688.067	3.62
688.391	3.53
688.714	3.55
689.038	3.73
689.361	3.94
689.685	3.84
690.008	4.3
690.331	4.12
690.655	4.05
690.978	4.05
691.301	3.94
691.624	3.61
691.947	3.98
692.27	4.23
692.593	4.24
692.916	4.33
693.239	4.33
693.561	4.26
693.884	4.14
694.207	4.24
694.529	4.19
694.852	4.34
695.174	4.33
695.497	4.14
695.819	4.28
696.142	4.68
696.464	4.63
696.786	4.69
697.108	5.31
697.43	5.47
697.753	5.1
698.075	4.79
698.397	4.46
698.718	4.08
699.04	4.01
699.362	4.16
699.684	4.4
700.006	4.67
700.327	4.85
700.649	4.86
700.97	4.65
701.292	4.35
701.613	4
701.935	4.12
702.256	4.08
702.577	4.37
702.898	4.72
703.22	5.13
703.541	5.24
703.862	5.29
704.183	5.22
704.504	4.93
704.825	4.97
705.145	4.75
705.466	4.81
705.787	4.65
706.108	4.77
706.428	4.45
706.749	4.16
707.069	4.15
707.39	4
707.71	4.34
708.03	4.63
708.351	4.77
708.671	4.88
708.991	5.22
709.311	4.98
709.631	4.95
709.951	4.84
710.271	4.91
710.591	4.98
710.911	5.05
711.231	4.99
711.551	5.24
711.87	5.14
712.19	5.2
712.51	5.24
712.829	5.32
713.149	5.08
713.468	5.09
713.787	5
714.107	4.84
714.426	4.86
714.745	5.14
715.064	5.32
715.383	5.07
715.702	5.11
716.021	5.03
716.34	5
716.659	4.62
716.978	4.66
717.297	4.71
717.615	4.75
717.934	4.92
718.253	4.74
718.571	4.56
718.89	4.55
719.208	4.42
719.527	4.38
719.845	4.58
720.163	5.1
720.481	5.07
720.8	5.5
721.118	5.21
721.436	5.11
721.754	4.72
722.072	5.01
722.39	4.67
722.707	4.79
723.025	5.34
723.343	5.55
723.661	5.19
723.978	5.16
724.296	5.39
724.613	5.18
724.931	5.24
725.248	5.39
725.565	5.62
725.883	5.58
726.2	5.71
726.517	5.82
726.834	6.18
727.151	6.45
727.468	5.94
727.785	6.04
728.102	6.1
728.419	6.14
728.736	5.43
729.052	5.99
729.369	5.68
729.686	5.79
730.002	5.96
730.319	6.23
730.635	5.79
730.951	5.78
731.268	5.09
731.584	5.01
731.9	5.26
732.216	5.62
732.533	5.69
732.849	6.15
733.165	5.64
733.481	5.59
733.796	5.53
734.112	5.89
734.428	5.55
734.744	5.23
735.059	5.17
735.375	5.5
735.691	5.02
736.006	5.18
736.322	5.63
736.637	5.59
736.952	5.31
737.268	5.92
737.583	6.09
737.898	5.91
738.213	5.79
738.528	5.5
738.843	5.76
739.158	5.99
739.473	6.25
739.788	6.09
740.102	5.82
740.417	5.14
740.732	5.35
741.046	5.49
741.361	6.23
741.675	6.71
741.99	7.03
742.304	6.98
742.618	7.1
742.933	6.89
743.247	6.42
743.561	5.95
743.875	5.48
744.189	5.39
744.503	5.56
744.817	5.7
745.131	5.56
745.445	6.02
745.758	6.09
746.072	5.96
746.386	6.5
746.699	6.94
747.013	6.98
747.326	6.96
747.64	6.4
747.953	6.58
748.266	6.16
748.58	6.08
748.893	6.12
749.206	6.27
749.519	5.86
749.832	5.78
750.145	5.43
750.458	5.53
750.771	5.53
751.083	5.79
751.396	6.39
751.709	6.76
752.021	6.78
752.334	7.89
752.646	7.57
752.959	7.28
753.271	7.32
753.584	6.66
753.896	5.8
754.208	5.99
754.52	6.04
754.832	5.78
755.144	6.16
755.456	5.87
755.768	5.71
756.08	6.23
756.392	6.18
756.704	6.5
757.015	6.85
757.327	7.1
757.638	6.12
757.95	6.41
758.261	6.22
758.573	6.61
758.884	7.21
759.195	7.31
759.507	7.31
759.818	7.67
760.129	7.49
760.44	7.41
760.751	8.32
761.062	7.94
761.373	7.56
761.684	7.19
761.994	7.42
762.305	7.98
762.616	8.55
762.926	8.72
763.237	9.16
763.547	8.81
763.858	8.03
764.168	7.79
764.478	7.88
764.789	7.6
765.099	7.11
765.409	7.33
765.719	7.58
766.029	7.54
766.339	7.37
766.649	7.92
766.959	7.72
767.269	6.96
767.578	6.73
767.888	6.4
768.198	5.99
768.507	5.72
768.817	6.35
769.126	6.41
769.435	6.81
769.745	6.63
770.054	7.63
770.363	7.78
770.672	7.26
770.981	7.63
771.29	8.26
771.599	7.12
771.908	7.1
772.217	7.84
772.526	7.83
772.835	7.46
773.143	7.48
773.452	7.05
773.76	6.35
774.069	5.87
774.377	4.69
774.686	4.59
774.994	5.47
775.302	5.6
775.611	6.22
775.919	6.7
776.227	7.51
776.535	8.54
776.843	9.78
777.151	9.62
777.459	10.23
777.766	9.06
778.074	7.26
778.382	5.51
778.689	5.22
778.997	5.3
779.304	6.63
779.612	6.61
779.919	7.48
780.227	8.2
780.534	7.88
780.841	7.65
781.148	6.16
781.455	5.7
781.762	5.01
782.069	5.8
782.376	7.02
782.683	8.96
782.99	9.04
783.296	8.74
783.603	9.17
783.91	7.93
784.216	7.19
784.523	6.06
784.829	6.25
785.136	5.07
785.442	5.13
785.748	6.6
786.054	7.88
786.36	6.76
786.667	7.09
786.973	6.43
787.278	5.64
787.584	6.37
787.89	6.56
788.196	6.66
788.502	7.15
788.807	7.99
789.113	8.14
789.418	9.83
789.724	9.69
790.029	9.9
790.335	9.89
790.64	10.36
790.945	8.91
791.25	7.85
791.556	6.93
791.861	6.62
792.166	6.05
792.471	6.79
792.775	8.19
793.08	10.45
793.385	9.96
793.69	9.48
793.994	7.99
794.299	9.51
794.603	8.36
794.908	8.49
795.212	7.68
795.517	9.96
795.821	7.59
796.125	7.26
796.429	7
796.733	7.57
797.037	7.12
797.341	8.22
797.645	7.77
797.949	6.75
798.253	6.03
798.557	5.84
798.86	4.43
799.164	3.9
799.468	5.22
799.771	6.33
800.074	5.79
800.378	7.13
800.681	8.24
800.984	8.02
801.288	7.68
801.591	6.37
801.894	5.89
802.197	5.24
802.5	5.38
802.803	6.76
803.105	9.78
803.408	10.81
803.711	12.11
804.014	12.38
804.316	11.13
804.619	10.39
804.921	10.01
805.224	10.37
805.526	8.49
805.828	10.68
806.13	10.1
806.433	11.54
806.735	9.98
807.037	10.28
807.339	6.72
807.641	6.94
807.942	4.15
808.244	6.56
808.546	7.86
808.848	10.69
809.149	9.35
809.451	10.89
809.752	9.22
810.054	11.52
810.355	12.26
810.656	11.8
810.958	13.13
811.259	13.39
811.56	11.63
811.861	10.56
812.162	12.77
812.463	10.58
812.764	11.35
813.065	9.21
813.365	9.15
813.666	7.65
813.967	7.32
814.267	8.49
814.568	7.24
814.868	4.25
815.169	5.95
815.469	9.44
815.769	8.04
816.069	9.03
816.37	11.14
816.67	10.24
816.97	10.63
817.27	11.27
817.57	12.32
817.869	13.76
818.169	14.67
818.469	13.32
818.768	11.43
819.068	10.67
819.368	10.43
819.667	9.82
819.966	11.27
820.266	12.56
820.565	13.02
820.864	12.28
821.163	13.4
821.463	11.75
821.762	9.8
822.06	9.67
822.359	9.96
822.658	9.24
822.957	9.56
823.256	10.37
823.554	10.39
823.853	10.49
824.152	10.68
824.45	10.86
824.748	10.71
825.047	10.71
825.345	10.65
825.643	10.31
825.941	9.38
826.239	9.04
826.538	9.2
826.836	8.91
827.133	9.05
827.431	10.33
827.729	11.65
828.027	11.66
828.324	11.92
828.622	12.47
828.92	11.53
829.217	10.71
829.514	11.19
829.812	10.2
830.109	10.49
830.406	11.17
830.703	12.22
831.001	12.15
831.298	14.06
831.595	9.95
831.891	10.74
832.188	5.89
832.485	5.24
832.782	2.17
833.078	6.08
833.375	5.17
833.672	7.92
833.968	9.08
834.264	10.69
834.561	10.2
834.857	10.32
835.153	11.85
835.449	11.86
835.746	12.33
836.042	11.3
836.338	12.5
836.633	11.4
836.929	10.47
837.225	8.27
837.521	9.05
837.816	8.29
838.112	7.94
838.408	10
838.703	14.33
838.998	17.93
839.294	15.99
839.589	17.49
839.884	13.65
840.179	12
840.474	9.35
840.77	7.88
841.064	2.78
841.359	3.64
841.654	10.11
841.949	9.95
842.244	11.4
842.538	10.57
842.833	9.89
843.127	8.2
843.422	11.42
843.716	12.11
844.011	20.12
844.305	26
844.599	24.26
844.893	23.24
845.187	18.9
845.481	15.07
845.775	14.61
846.069	9.58
846.363	8.94
846.657	13.2
846.95	16.85
847.244	17.04
847.537	12.93
847.831	-1
848.124	3.72
848.418	-14.61
848.711	-18.01
849.004	-8.79
849.297	-2.17
849.591	-11.02
849.884	5.36
850.177	3.28
850.47	13.4
850.762	11.33
851.055	11.64
851.348	4.08
851.641	3.75
851.933	2.81
852.226	8.95
852.518	13.98
852.811	24.18
853.103	22.35
853.395	2.77
853.687	7.07
853.98	8.2
854.272	14.71
854.564	16.23
854.856	28.4
855.148	25.08
855.439	7.28
855.731	-2.39
856.023	-0.02
856.314	-12.57
856.606	-24.42
856.898	-18.1
857.189	-9.21
857.48	-20.15
857.772	-23.92
858.063	-0.03
858.354	-8.5
858.645	3.76
858.936	7.56
859.227	12.22
859.518	-15.18
859.809	3.35
860.1	-11.42
860.391	1.73
860.681	-18.9
860.972	-4.95
861.262	-22.66
861.553	-11.38
861.843	-25.38
862.134	-0.7
862.424	5.97
862.714	20.08
863.004	24.92
863.294	19.37
863.584	-2.2
863.874	-5.39
864.164	7.09
864.454	-20.89
864.744	-19.39
865.034	8.58
865.323	32.04
865.613	-19.49
865.902	-1.89
866.192	22.68
866.481	7.68
866.77	-19.91
867.06	34.33
867.349	30.41
867.638	21.66
867.927	39.61
868.216	57.54
868.505	68.05
868.794	53.72
869.082	64.34
869.371	93.81
869.66	75.91
869.948	-4.7
870.237	-62.92
870.525	-29.4
870.814	-143.84
871.102	-35.93
871.39	95.12
871.678	38.24
871.967	40.6
872.255	-12.79
872.543	-350.17
872.831	5933.27
873.118	86.1
873.406	91.96
873.694	53.49
873.982	83.36
874.269	64.74
874.557	98.7
874.844	125.11
875.132	115.34
875.419	108.38
