Data from Cn-i3_Reflection_14-56-38-486.txt Node
Date: Tue Aug 16 14:56:38 CEST 2022
User: IDIV
Spectrometer: FLMS14958
Trigger mode: 0
Integration Time (sec): 1.000000E-1
Scans to average: 10
Electric dark correction enabled: true
Nonlinearity correction enabled: true
Boxcar width: 2
XAxis mode: Wavelengths
Number of Pixels in Spectrum: 2048
>>>>>Begin Spectral Data<<<<<
179.491	199.38
179.869	230.72
180.247	174.68
180.625	346.74
181.003	584.72
181.381	-24.24
181.759	-3.9
182.136	160.79
182.514	196.93
182.892	71.04
183.27	-8.93
183.647	-142.09
184.025	148.96
184.403	359.18
184.78	63.99
185.158	29.66
185.536	59.08
185.913	-597.48
186.291	60.22
186.668	91.13
187.046	46.65
187.423	-265.13
187.801	14.75
188.178	-6.02
188.556	-11.4
188.933	-19.52
189.31	-27.29
189.688	-60
190.065	-59.21
190.442	-49.01
190.82	-23.45
191.197	-18.42
191.574	-2.57
191.951	-1.97
192.329	-1.28
192.706	-13.34
193.083	-17.46
193.46	-41.82
193.837	-17.4
194.214	-27.42
194.591	-15.69
194.968	1.36
195.345	13.27
195.722	14.97
196.099	14.97
196.476	9.64
196.853	1.98
197.23	2.37
197.607	9.28
197.984	23.22
198.36	23.13
198.737	26.33
199.114	21.21
199.491	10.38
199.867	-2.16
200.244	4.17
200.621	-4.08
200.997	-14.11
201.374	-23.09
201.75	-18.29
202.127	-15.68
202.504	-10.94
202.88	-6.1
203.257	5.81
203.633	-3.98
204.01	-3.46
204.386	6.68
204.762	11.58
205.139	5.84
205.515	10.28
205.891	1.16
206.268	2.34
206.644	9.25
207.02	5.44
207.396	2.67
207.773	0.45
208.149	-3.45
208.525	-9.13
208.901	1.21
209.277	7.97
209.653	12.55
210.029	1.11
210.405	2.31
210.781	2.73
211.157	-0.13
211.533	11.02
211.909	21.05
212.285	22.22
212.661	17.2
213.037	20.38
213.413	3.9
213.789	8.58
214.164	16.45
214.54	9.45
214.916	13.7
215.292	29.8
215.667	29.03
216.043	20.73
216.419	25.14
216.794	22.55
217.17	9.95
217.545	7.7
217.921	13.42
218.296	12.18
218.672	15.72
219.047	19.19
219.423	18.02
219.798	16.24
220.174	18.94
220.549	16.37
220.924	15.43
221.3	11.2
221.675	10.24
222.05	15.41
222.425	16.1
222.801	21.94
223.176	24.45
223.551	25.52
223.926	16.73
224.301	11.77
224.676	7.29
225.051	3.26
225.426	-2.11
225.801	-1.3
226.176	0.55
226.551	-2.14
226.926	-2
227.301	-0.02
227.676	3.68
228.051	4.15
228.426	2.63
228.801	2.32
229.175	0.68
229.55	-0.25
229.925	-0.38
230.3	2.48
230.674	4.08
231.049	6.34
231.424	7.51
231.798	8.02
232.173	6.2
232.547	4.63
232.922	3.46
233.296	2.64
233.671	3.02
234.045	3.28
234.42	3.25
234.794	2.09
235.168	0.33
235.543	0.29
235.917	-0.45
236.291	-0.31
236.666	0.87
237.04	3.76
237.414	3.57
237.788	2.77
238.162	2.21
238.537	2.21
238.911	-1.51
239.285	-2.36
239.659	-0.92
240.033	-1.04
240.407	0.02
240.781	2.92
241.155	3.14
241.529	2.5
241.903	2.58
242.277	1.81
242.65	1.33
243.024	1.35
243.398	1.41
243.772	1.72
244.146	1.94
244.519	1.89
244.893	2.12
245.267	2.8
245.64	2.64
246.014	2.07
246.387	1.91
246.761	1.56
247.135	1.48
247.508	1.58
247.882	1.96
248.255	2.09
248.628	2.35
249.002	2.33
249.375	2.14
249.749	1.78
250.122	1.51
250.495	1.16
250.868	0.63
251.242	0.98
251.615	1.12
251.988	0.87
252.361	0.87
252.734	1.4
253.107	0.9
253.481	0.82
253.854	0.73
254.227	0.75
254.6	0.52
254.973	1.36
255.346	1.19
255.718	1.55
256.091	1.51
256.464	1.54
256.837	2.15
257.21	2.41
257.583	2.26
257.955	2.27
258.328	2.42
258.701	1.92
259.074	1.47
259.446	1.55
259.819	1.4
260.191	1.22
260.564	1.06
260.936	1.05
261.309	0.98
261.681	1.02
262.054	0.97
262.426	1.26
262.799	1.56
263.171	1.85
263.543	1.93
263.916	2.14
264.288	1.98
264.66	1.7
265.033	1.56
265.405	1.6
265.777	1.46
266.149	1.74
266.521	1.69
266.893	1.82
267.265	1.51
267.637	1.51
268.009	1.5
268.381	1.65
268.753	1.46
269.125	1.35
269.497	1.14
269.869	0.81
270.241	0.55
270.613	0.66
270.985	0.99
271.356	1.34
271.728	1.34
272.1	1.4
272.471	1.33
272.843	1.44
273.215	1.47
273.586	1.5
273.958	1.65
274.329	1.79
274.701	1.73
275.072	1.39
275.444	1.56
275.815	1.73
276.187	1.44
276.558	1.54
276.929	1.78
277.301	1.7
277.672	1.47
278.043	1.59
278.415	1.46
278.786	1.53
279.157	1.71
279.528	1.74
279.899	1.45
280.27	1.4
280.641	1.06
281.012	0.96
281.383	1.13
281.754	1.31
282.125	1.44
282.496	2.09
282.867	2.12
283.238	1.91
283.609	1.93
283.98	1.61
284.35	0.95
284.721	0.98
285.092	1.07
285.462	1.28
285.833	1.25
286.204	1.37
286.574	1.39
286.945	1.7
287.315	1.5
287.686	1.6
288.056	1.68
288.427	1.5
288.797	1.23
289.168	1.22
289.538	1.43
289.908	1.34
290.279	1.36
290.649	1.1
291.019	1.28
291.39	1.19
291.76	1.15
292.13	1.25
292.5	1.72
292.87	1.63
293.24	1.73
293.61	1.77
293.98	1.54
294.35	1.22
294.72	1.22
295.09	0.97
295.46	0.76
295.83	0.96
296.2	0.85
296.57	0.68
296.939	0.91
297.309	1.06
297.679	1.02
298.049	1.14
298.418	1.08
298.788	1.04
299.158	1.07
299.527	0.88
299.897	0.64
300.266	0.75
300.636	0.66
301.005	0.41
301.375	0.85
301.744	1.24
302.113	1.43
302.483	1.5
302.852	1.95
303.221	1.69
303.591	1.58
303.96	1.51
304.329	1.47
304.698	1.41
305.067	1.62
305.436	1.65
305.806	1.83
306.175	1.94
306.544	1.84
306.913	1.56
307.282	1.3
307.65	1.02
308.019	1.12
308.388	1.13
308.757	1.2
309.126	1.35
309.495	1.15
309.863	0.84
310.232	0.74
310.601	0.5
310.969	0.61
311.338	1
311.707	1.11
312.075	1.34
312.444	1.58
312.812	1.29
313.181	1.03
313.549	1
313.918	0.84
314.286	0.87
314.654	1.27
315.023	1.13
315.391	1.03
315.759	1.11
316.127	0.99
316.496	1.04
316.864	1.43
317.232	1.73
317.6	1.39
317.968	1.59
318.336	1.33
318.704	1.32
319.072	1.37
319.44	1.64
319.808	1.69
320.176	1.63
320.544	1.67
320.912	1.49
321.28	1.65
321.647	1.29
322.015	1.58
322.383	1.51
322.75	1.5
323.118	1.35
323.486	1.45
323.853	1.15
324.221	1.09
324.588	0.9
324.956	0.65
325.323	0.43
325.691	0.55
326.058	0.34
326.426	0.51
326.793	0.88
327.16	1.22
327.528	0.98
327.895	1.11
328.262	1.21
328.629	0.98
328.996	0.93
329.363	1.21
329.731	1.15
330.098	0.98
330.465	1.16
330.832	0.99
331.199	1.23
331.566	1.29
331.932	1.22
332.299	1.09
332.666	1.19
333.033	0.95
333.4	0.93
333.766	0.98
334.133	0.96
334.5	0.74
334.867	0.59
335.233	0.5
335.6	0.6
335.966	0.74
336.333	1.11
336.699	1.6
337.066	1.78
337.432	1.72
337.799	1.69
338.165	1.58
338.531	1.16
338.898	0.95
339.264	1.03
339.63	1.05
339.996	1.03
340.363	1.04
340.729	1.48
341.095	1.64
341.461	1.63
341.827	1.37
342.193	1.35
342.559	1
342.925	0.74
343.291	0.62
343.657	0.74
344.023	1.04
344.388	1.14
344.754	1.27
345.12	1.26
345.486	1.56
345.851	1.41
346.217	1.48
346.583	1.54
346.948	1.59
347.314	1.64
347.679	1.4
348.045	1.38
348.41	1.1
348.776	1.02
349.141	0.98
349.507	1.14
349.872	1.08
350.237	1.15
350.603	1.18
350.968	0.91
351.333	0.75
351.698	0.67
352.063	0.89
352.428	0.87
352.794	0.89
353.159	1.05
353.524	1.31
353.889	1.32
354.254	1.16
354.618	1.26
354.983	1.22
355.348	1.03
355.713	1.09
356.078	1.18
356.443	1.16
356.807	1.07
357.172	1.04
357.537	0.71
357.901	0.74
358.266	0.69
358.63	0.75
358.995	0.74
359.359	0.93
359.724	0.8
360.088	0.77
360.453	0.83
360.817	0.87
361.181	0.97
361.546	1.26
361.91	1.28
362.274	1.38
362.638	1.41
363.003	1.34
363.367	1.17
363.731	1.15
364.095	0.93
364.459	0.89
364.823	0.8
365.187	1
365.551	1.07
365.915	1.21
366.279	1.14
366.642	1.1
367.006	0.77
367.37	0.84
367.734	0.74
368.097	0.98
368.461	0.99
368.825	0.99
369.188	0.87
369.552	0.77
369.915	0.45
370.279	0.57
370.642	0.9
371.006	0.9
371.369	1.05
371.732	1.14
372.096	1.13
372.459	0.79
372.822	0.83
373.186	0.92
373.549	1.13
373.912	1.07
374.275	1.15
374.638	1.31
375.001	1.19
375.364	1.22
375.727	1.28
376.09	1.5
376.453	1.28
376.816	1.25
377.179	0.95
377.542	0.72
377.904	0.5
378.267	0.59
378.63	0.65
378.993	0.66
379.355	0.91
379.718	1.11
380.08	1.05
380.443	1.01
380.806	1.18
381.168	1.38
381.53	1.4
381.893	1.44
382.255	1.4
382.618	1.36
382.98	0.95
383.342	0.98
383.704	1.12
384.067	1.2
384.429	1.12
384.791	1.26
385.153	1.12
385.515	1
385.877	0.89
386.239	1.08
386.601	1.27
386.963	1.32
387.325	1.31
387.687	1.4
388.049	1.29
388.41	1.24
388.772	1.25
389.134	1.29
389.496	1.31
389.857	1.42
390.219	1.44
390.58	1.37
390.942	1.4
391.303	1.35
391.665	1.25
392.026	1.2
392.388	1.39
392.749	1.43
393.111	1.53
393.472	1.47
393.833	1.51
394.194	1.44
394.556	1.4
394.917	1.36
395.278	1.38
395.639	1.37
396	1.37
396.361	1.43
396.722	1.45
397.083	1.49
397.444	1.43
397.805	1.65
398.166	1.63
398.526	1.55
398.887	1.7
399.248	1.75
399.609	1.66
399.969	1.77
400.33	1.91
400.691	1.87
401.051	1.76
401.412	1.62
401.772	1.57
402.133	1.51
402.493	1.44
402.853	1.61
403.214	1.61
403.574	1.6
403.934	1.76
404.295	1.88
404.655	1.92
405.015	1.95
405.375	2
405.735	1.91
406.095	1.93
406.455	1.85
406.815	1.87
407.175	1.85
407.535	1.87
407.895	1.83
408.255	1.85
408.615	1.79
408.975	1.67
409.334	1.64
409.694	1.68
410.054	1.72
410.413	1.8
410.773	2.01
411.133	2.03
411.492	2.04
411.852	1.93
412.211	1.96
412.571	1.88
412.93	1.85
413.289	1.83
413.649	1.93
414.008	1.91
414.367	1.96
414.726	1.97
415.086	1.95
415.445	1.98
415.804	1.94
416.163	1.85
416.522	1.93
416.881	1.96
417.24	1.97
417.599	2.06
417.958	2.1
418.316	2.07
418.675	2.01
419.034	2
419.393	1.99
419.751	1.97
420.11	1.95
420.469	1.97
420.827	2.01
421.186	2.05
421.544	2.06
421.903	2.1
422.261	2.14
422.62	2.16
422.978	2.14
423.336	2.15
423.695	2.14
424.053	2.16
424.411	2.14
424.769	2.14
425.128	2.15
425.486	2.2
425.844	2.18
426.202	2.17
426.56	2.14
426.918	2.13
427.276	2.12
427.634	2.09
427.991	2.15
428.349	2.13
428.707	2.16
429.065	2.15
429.423	2.17
429.78	2.15
430.138	2.15
430.495	2.11
430.853	2.17
431.211	2.14
431.568	2.14
431.925	2.16
432.283	2.17
432.64	2.06
432.998	2.03
433.355	2.01
433.712	1.96
434.069	1.94
434.427	1.91
434.784	1.95
435.141	2
435.498	2.04
435.855	2.12
436.212	2.22
436.569	2.21
436.926	2.09
437.283	2.12
437.64	2.05
437.996	2.06
438.353	2.14
438.71	2.17
439.067	2.19
439.423	2.23
439.78	2.19
440.137	2.14
440.493	2.16
440.85	2.11
441.206	2.07
441.563	2.04
441.919	2.05
442.275	2.03
442.632	2.06
442.988	2.07
443.344	2.11
443.7	2.11
444.057	2.18
444.413	2.16
444.769	2.21
445.125	2.21
445.481	2.24
445.837	2.2
446.193	2.22
446.549	2.22
446.905	2.29
447.26	2.25
447.616	2.3
447.972	2.37
448.328	2.38
448.683	2.3
449.039	2.38
449.395	2.41
449.75	2.36
450.106	2.32
450.461	2.36
450.817	2.34
451.172	2.33
451.527	2.31
451.883	2.29
452.238	2.34
452.593	2.3
452.949	2.31
453.304	2.34
453.659	2.36
454.014	2.31
454.369	2.36
454.724	2.39
455.079	2.38
455.434	2.4
455.789	2.34
456.144	2.28
456.499	2.26
456.853	2.26
457.208	2.26
457.563	2.34
457.918	2.32
458.272	2.27
458.627	2.3
458.981	2.33
459.336	2.31
459.69	2.3
460.045	2.34
460.399	2.31
460.754	2.37
461.108	2.36
461.462	2.42
461.817	2.43
462.171	2.43
462.525	2.38
462.879	2.39
463.233	2.39
463.587	2.42
463.941	2.48
464.295	2.46
464.649	2.47
465.003	2.46
465.357	2.41
465.711	2.39
466.065	2.41
466.418	2.47
466.772	2.51
467.126	2.51
467.479	2.51
467.833	2.41
468.186	2.35
468.54	2.35
468.893	2.38
469.247	2.37
469.6	2.44
469.954	2.52
470.307	2.63
470.66	2.56
471.013	2.59
471.367	2.62
471.72	2.52
472.073	2.41
472.426	2.36
472.779	2.3
473.132	2.26
473.485	2.31
473.838	2.29
474.191	2.44
474.544	2.46
474.896	2.41
475.249	2.45
475.602	2.54
475.955	2.45
476.307	2.48
476.66	2.55
477.012	2.48
477.365	2.38
477.717	2.41
478.07	2.39
478.422	2.4
478.775	2.46
479.127	2.48
479.479	2.48
479.831	2.5
480.184	2.49
480.536	2.48
480.888	2.52
481.24	2.51
481.592	2.47
481.944	2.46
482.296	2.43
482.648	2.34
483	2.28
483.352	2.21
483.703	2.18
484.055	2.21
484.407	2.27
484.759	2.31
485.11	2.39
485.462	2.44
485.813	2.47
486.165	2.42
486.516	2.4
486.868	2.41
487.219	2.39
487.571	2.35
487.922	2.39
488.273	2.44
488.624	2.46
488.976	2.52
489.327	2.57
489.678	2.56
490.029	2.56
490.38	2.53
490.731	2.49
491.082	2.49
491.433	2.47
491.784	2.45
492.135	2.48
492.485	2.53
492.836	2.52
493.187	2.57
493.537	2.62
493.888	2.65
494.239	2.66
494.589	2.71
494.94	2.76
495.29	2.79
495.641	2.83
495.991	2.85
496.341	2.85
496.692	2.86
497.042	2.82
497.392	2.81
497.742	2.82
498.092	2.8
498.442	2.84
498.793	2.87
499.143	2.89
499.493	2.91
499.842	2.97
500.192	3
500.542	3.13
500.892	3.14
501.242	3.15
501.591	3.07
501.941	3.1
502.291	2.97
502.64	3.01
502.99	2.98
503.339	3.14
503.689	3.14
504.038	3.27
504.388	3.32
504.737	3.45
505.086	3.49
505.436	3.54
505.785	3.56
506.134	3.6
506.483	3.63
506.832	3.69
507.181	3.71
507.53	3.74
507.879	3.76
508.228	3.8
508.577	3.79
508.926	3.87
509.275	3.86
509.624	3.89
509.972	3.94
510.321	4.01
510.67	4.08
511.018	4.26
511.367	4.29
511.715	4.34
512.064	4.39
512.412	4.43
512.761	4.51
513.109	4.64
513.457	4.67
513.806	4.7
514.154	4.73
514.502	4.73
514.85	4.79
515.198	4.87
515.546	5.03
515.894	5.13
516.242	5.13
516.59	5.17
516.938	5.26
517.286	5.31
517.634	5.36
517.981	5.44
518.329	5.54
518.677	5.56
519.024	5.58
519.372	5.69
519.72	5.8
520.067	5.88
520.415	6.01
520.762	6.13
521.109	6.19
521.457	6.27
521.804	6.34
522.151	6.41
522.498	6.5
522.846	6.52
523.193	6.59
523.54	6.62
523.887	6.67
524.234	6.68
524.581	6.78
524.928	6.84
525.275	6.87
525.621	6.87
525.968	6.93
526.315	6.94
526.662	6.98
527.008	7.04
527.355	7.09
527.701	7.1
528.048	7.15
528.394	7.17
528.741	7.23
529.087	7.32
529.434	7.42
529.78	7.5
530.126	7.63
530.472	7.72
530.819	7.78
531.165	7.83
531.511	7.89
531.857	7.88
532.203	7.89
532.549	7.85
532.895	7.8
533.241	7.76
533.586	7.79
533.932	7.83
534.278	7.89
534.624	7.99
534.969	8.09
535.315	8.14
535.661	8.13
536.006	8.17
536.352	8.14
536.697	8.1
537.042	8.15
537.388	8.19
537.733	8.21
538.078	8.29
538.424	8.37
538.769	8.39
539.114	8.39
539.459	8.38
539.804	8.27
540.149	8.2
540.494	8.16
540.839	8.12
541.184	8.12
541.529	8.18
541.873	8.23
542.218	8.27
542.563	8.36
542.908	8.43
543.252	8.45
543.597	8.5
543.941	8.52
544.286	8.5
544.63	8.45
544.975	8.46
545.319	8.35
545.663	8.33
546.007	8.27
546.352	8.28
546.696	8.31
547.04	8.43
547.384	8.45
547.728	8.54
548.072	8.6
548.416	8.62
548.76	8.6
549.104	8.61
549.448	8.63
549.791	8.66
550.135	8.62
550.479	8.7
550.823	8.72
551.166	8.78
551.51	8.81
551.853	8.93
552.197	8.83
552.54	8.86
552.883	8.78
553.227	8.77
553.57	8.8
553.913	8.9
554.257	8.85
554.6	8.93
554.943	8.94
555.286	8.91
555.629	8.93
555.972	9.04
556.315	9.05
556.658	9.07
557.001	9.03
557.343	9.03
557.686	8.99
558.029	8.91
558.371	8.86
558.714	8.85
559.057	8.79
559.399	8.81
559.742	8.86
560.084	8.97
560.427	8.98
560.769	8.99
561.111	8.92
561.453	8.95
561.796	8.81
562.138	8.75
562.48	8.77
562.822	8.78
563.164	8.66
563.506	8.71
563.848	8.68
564.19	8.62
564.532	8.58
564.874	8.6
565.215	8.53
565.557	8.44
565.899	8.37
566.24	8.29
566.582	8.34
566.924	8.31
567.265	8.36
567.606	8.34
567.948	8.33
568.289	8.22
568.631	8.16
568.972	8.13
569.313	8.07
569.654	7.96
569.995	7.92
570.336	7.94
570.677	7.9
571.018	7.89
571.359	7.86
571.7	7.75
572.041	7.64
572.382	7.61
572.723	7.6
573.064	7.64
573.404	7.69
573.745	7.68
574.085	7.64
574.426	7.56
574.766	7.48
575.107	7.38
575.447	7.37
575.788	7.37
576.128	7.32
576.468	7.26
576.808	7.25
577.149	7.21
577.489	7.17
577.829	7.21
578.169	7.28
578.509	7.33
578.849	7.27
579.189	7.19
579.529	7.1
579.868	6.97
580.208	6.95
580.548	7.06
580.887	7.11
581.227	7.12
581.567	7.03
581.906	6.96
582.246	6.82
582.585	6.74
582.925	6.78
583.264	6.86
583.603	6.76
583.942	6.78
584.282	6.85
584.621	6.68
584.96	6.75
585.299	6.73
585.638	6.66
585.977	6.55
586.316	6.62
586.655	6.51
586.994	6.51
587.332	6.5
587.671	6.52
588.01	6.5
588.348	6.44
588.687	6.41
589.026	6.31
589.364	6.32
589.703	6.22
590.041	6.27
590.379	6.29
590.718	6.31
591.056	6.36
591.394	6.52
591.732	6.55
592.07	6.56
592.409	6.56
592.747	6.36
593.085	6.29
593.423	6.26
593.76	6.17
594.098	6.19
594.436	6.27
594.774	6.3
595.112	6.31
595.449	6.44
595.787	6.4
596.124	6.41
596.462	6.28
596.799	6.25
597.137	6.23
597.474	6.21
597.812	6.19
598.149	6.24
598.486	6.25
598.823	6.24
599.16	6.32
599.498	6.26
599.835	6.19
600.172	6.1
600.509	6.11
600.845	6.05
601.182	6.14
601.519	6.15
601.856	6.12
602.193	6.08
602.529	6.06
602.866	5.92
603.202	5.95
603.539	6.05
603.875	5.97
604.212	5.98
604.548	6
604.885	6.02
605.221	5.92
605.557	5.97
605.893	6
606.23	6.02
606.566	6.02
606.902	6.13
607.238	6.15
607.574	6.14
607.91	6.08
608.245	6
608.581	5.87
608.917	5.81
609.253	5.8
609.588	5.75
609.924	5.71
610.26	5.68
610.595	5.65
610.931	5.5
611.266	5.52
611.601	5.48
611.937	5.47
612.272	5.48
612.607	5.56
612.942	5.6
613.278	5.69
613.613	5.67
613.948	5.53
614.283	5.58
614.618	5.57
614.953	5.48
615.287	5.47
615.622	5.57
615.957	5.43
616.292	5.32
616.626	5.24
616.961	5.15
617.295	5.1
617.63	5.06
617.964	5.02
618.299	5.06
618.633	5.15
618.968	5.21
619.302	5.31
619.636	5.31
619.97	5.22
620.304	5.26
620.638	5.22
620.972	5.13
621.306	5.14
621.64	5.19
621.974	5.2
622.308	5.13
622.642	5.3
622.976	5.48
623.309	5.4
623.643	5.28
623.977	5.24
624.31	5
624.644	4.77
624.977	4.93
625.31	4.91
625.644	4.91
625.977	4.96
626.31	4.91
626.643	4.8
626.977	4.82
627.31	4.91
627.643	4.96
627.976	5.11
628.309	5.07
628.642	4.99
628.974	4.94
629.307	4.9
629.64	4.82
629.973	4.9
630.305	5.09
630.638	4.94
630.971	4.98
631.303	4.98
631.636	5.13
631.968	5.02
632.3	5.19
632.633	5.01
632.965	5.03
633.297	4.9
633.629	4.9
633.961	4.82
634.293	4.93
634.625	4.9
634.957	4.87
635.289	4.88
635.621	4.89
635.953	4.88
636.285	4.87
636.617	4.75
636.948	4.74
637.28	4.66
637.611	4.6
637.943	4.61
638.274	4.75
638.606	4.68
638.937	4.71
639.269	4.64
639.6	4.56
639.931	4.35
640.262	4.32
640.593	4.37
640.924	4.4
641.255	4.44
641.586	4.5
641.917	4.49
642.248	4.41
642.579	4.26
642.91	4.11
643.24	4.16
643.571	4
643.902	3.83
644.232	3.84
644.563	3.85
644.893	3.73
645.224	3.77
645.554	3.87
645.884	3.9
646.215	3.9
646.545	3.93
646.875	4.01
647.205	4.02
647.535	3.99
647.865	3.86
648.195	3.82
648.525	3.65
648.855	3.61
649.185	3.54
649.515	3.68
649.844	3.59
650.174	3.69
650.504	3.66
650.833	3.69
651.163	3.61
651.492	3.63
651.822	3.4
652.151	3.39
652.48	3.44
652.81	3.46
653.139	3.41
653.468	3.56
653.797	3.54
654.126	3.55
654.455	3.51
654.784	3.49
655.113	3.48
655.442	3.74
655.771	3.67
656.099	3.7
656.428	3.65
656.757	3.71
657.085	3.53
657.414	3.39
657.742	3.34
658.071	3.41
658.399	3.31
658.728	3.04
659.056	3.04
659.384	3.02
659.712	3.05
660.04	3.06
660.369	3.23
660.697	3.2
661.025	3.17
661.353	3.26
661.68	3.38
662.008	3.42
662.336	3.46
662.664	3.59
662.991	3.44
663.319	3.35
663.647	3.2
663.974	3.28
664.302	3.24
664.629	3.25
664.956	3.19
665.284	3.26
665.611	3.39
665.938	3.05
666.265	3.09
666.593	3.17
666.92	3.21
667.247	2.81
667.574	3.16
667.9	3.01
668.227	2.92
668.554	2.75
668.881	2.92
669.208	2.78
669.534	3.06
669.861	2.96
670.187	3.12
670.514	3.28
670.84	3.4
671.167	3.16
671.493	3.33
671.819	3.54
672.146	3.59
672.472	3.54
672.798	3.5
673.124	3.65
673.45	3.5
673.776	3.5
674.102	3.65
674.428	3.76
674.754	3.79
675.079	3.97
675.405	4.05
675.731	4.06
676.056	4.23
676.382	4.38
676.707	4.34
677.033	4.46
677.358	4.56
677.684	4.71
678.009	4.64
678.334	4.74
678.659	4.67
678.985	4.76
679.31	4.68
679.635	4.6
679.96	4.51
680.285	4.55
680.609	4.42
680.934	4.47
681.259	4.62
681.584	4.76
681.908	4.84
682.233	5.16
682.558	5.2
682.882	5.26
683.207	5.43
683.531	5.65
683.855	5.67
684.18	5.62
684.504	5.77
684.828	5.85
685.152	5.7
685.476	5.8
685.8	5.98
686.124	5.88
686.448	5.86
686.772	6.2
687.096	6.04
687.42	6
687.744	6.34
688.067	6.28
688.391	6.24
688.714	6.69
689.038	6.87
689.361	6.85
689.685	7.35
690.008	7.53
690.331	7.6
690.655	7.99
690.978	8
691.301	7.81
691.624	7.91
691.947	8.03
692.27	8.51
692.593	8.8
692.916	9.2
693.239	9.19
693.561	9.67
693.884	9.36
694.207	9.71
694.529	9.71
694.852	10.18
695.174	9.83
695.497	10.12
695.819	10.26
696.142	10.58
696.464	11.01
696.786	11.62
697.108	11.79
697.43	11.92
697.753	12.14
698.075	11.98
698.397	11.92
698.718	11.99
699.04	12.24
699.362	12.26
699.684	12.59
700.006	12.92
700.327	13.68
700.649	14.12
700.97	14.84
701.292	15.21
701.613	15.91
701.935	15.87
702.256	16.11
702.577	16.54
702.898	17.18
703.22	16.76
703.541	17.22
703.862	17.48
704.183	17.28
704.504	17.32
704.825	17.9
705.145	17.78
705.466	17.87
705.787	18.47
706.108	18.53
706.428	19.08
706.749	19.67
707.069	20.11
707.39	20.06
707.71	20.24
708.03	19.99
708.351	19.8
708.671	19.97
708.991	20.12
709.311	20.57
709.631	20.94
709.951	21.7
710.271	21.61
710.591	22.03
710.911	22.31
711.231	22.31
711.551	22.09
711.87	22.49
712.19	22.45
712.51	22.25
712.829	22.44
713.149	22.56
713.468	22.4
713.787	22.7
714.107	22.9
714.426	23.39
714.745	23.7
715.064	23.92
715.383	23.85
715.702	23.84
716.021	23.94
716.34	23.91
716.659	24.58
716.978	25.25
717.297	25.83
717.615	26.05
717.934	26.59
718.253	26.79
718.571	26.58
718.89	26.97
719.208	27.45
719.527	27.84
719.845	27.65
720.163	28.25
720.481	27.71
720.8	27.37
721.118	27.51
721.436	28.18
721.754	28.18
722.072	29.1
722.39	29.03
722.707	28.25
723.025	27.55
723.343	27.28
723.661	26.83
723.978	27.86
724.296	28.06
724.613	28.84
724.931	28.96
725.248	28.98
725.565	28.9
725.883	29.78
726.2	29.67
726.517	30.41
726.834	30.31
727.151	30.16
727.468	29.91
727.785	29.91
728.102	29.81
728.419	30.09
728.736	30.3
729.052	30.26
729.369	30.47
729.686	30.11
730.002	30.83
730.319	31.05
730.635	31.32
730.951	31.36
731.268	31.74
731.584	31.63
731.9	31.51
732.216	31.97
732.533	32.15
732.849	32.48
733.165	32.54
733.481	32.87
733.796	32.77
734.112	32.5
734.428	32.09
734.744	32.38
735.059	32.48
735.375	33.34
735.691	33.38
736.006	33.58
736.322	34.06
736.637	34.09
736.952	33.11
737.268	33.66
737.583	33.58
737.898	32.77
738.213	32.51
738.528	32.87
738.843	32.89
739.158	33.11
739.473	32.88
739.788	33.41
740.102	33.21
740.417	33.64
740.732	34.33
741.046	34.62
741.361	34.19
741.675	34.55
741.99	34
742.304	33.63
742.618	33.9
742.933	34.23
743.247	34.27
743.561	34.58
743.875	34.86
744.189	35.28
744.503	34.86
744.817	34.89
745.131	34.48
745.445	34.47
745.758	33.73
746.072	33.84
746.386	34.21
746.699	34.88
747.013	34.62
747.326	35.31
747.64	34.56
747.953	34.55
748.266	34.34
748.58	34.78
748.893	34.7
749.206	35.48
749.519	34.53
749.832	34.91
750.145	34.4
750.458	33.78
750.771	34.07
751.083	34.64
751.396	35.21
751.709	35.04
752.021	35.27
752.334	34.91
752.646	35.54
752.959	34.2
753.271	34.45
753.584	35.26
753.896	35.08
754.208	34.48
754.52	35.13
754.832	35.32
755.144	35.13
755.456	35.28
755.768	35.54
756.08	35.97
756.392	35.62
756.704	35.43
757.015	35.47
757.327	35.04
757.638	34.72
757.95	35.53
758.261	35.27
758.573	35.38
758.884	35.31
759.195	35.34
759.507	35.02
759.818	35.71
760.129	36.11
760.44	36.28
760.751	36.31
761.062	35.6
761.373	35.23
761.684	34.83
761.994	35.21
762.305	34.49
762.616	34.83
762.926	34.62
763.237	34.23
763.547	33.91
763.858	33.72
764.168	33.86
764.478	33.96
764.789	34.04
765.099	34.11
765.409	35.29
765.719	35.16
766.029	35.01
766.339	35.41
766.649	36.17
766.959	35.59
767.269	35.61
767.578	34.88
767.888	34.58
768.198	33.62
768.507	34.19
768.817	34.21
769.126	34.95
769.435	34.21
769.745	34.43
770.054	33.07
770.363	33.31
770.672	33.62
770.981	34.79
771.29	34.95
771.599	35.16
771.908	35.15
772.217	34.4
772.526	34.64
772.835	34.24
773.143	34.72
773.452	33.35
773.76	33.98
774.069	33.85
774.377	34.34
774.686	34.37
774.994	36.08
775.302	36.39
775.611	35.76
775.919	34.62
776.227	34.81
776.535	34.94
776.843	34.08
777.151	35.62
777.459	36.42
777.766	36.47
778.074	37.19
778.382	37.39
778.689	36.76
778.997	36.58
779.304	36.43
779.612	34.73
779.919	35.52
780.227	36.18
780.534	35.32
780.841	35.2
781.148	34.32
781.455	35.1
781.762	34.69
782.069	36.02
782.376	36.76
782.683	38.13
782.99	36.82
783.296	34.79
783.603	34.11
783.91	31.83
784.216	32.77
784.523	33.78
784.829	35.08
785.136	35.98
785.442	36.18
785.748	34.68
786.054	35.17
786.36	34.85
786.667	34.1
786.973	35.37
787.278	35.35
787.584	33.75
787.89	31.95
788.196	32.24
788.502	33.21
788.807	33.94
789.113	34.15
789.418	36.58
789.724	35.77
790.029	36.22
790.335	35.78
790.64	36.38
790.945	36.26
791.25	36.57
791.556	35.53
791.861	34.79
792.166	34.69
792.471	34.73
792.775	34.3
793.08	32.59
793.385	33.54
793.69	34.28
793.994	34.8
794.299	35.57
794.603	36.09
794.908	36.38
795.212	33.84
795.517	32.61
795.821	32.55
796.125	33.76
796.429	32.5
796.733	31.94
797.037	32.29
797.341	31.56
797.645	30.9
797.949	31.25
798.253	31.83
798.557	31.84
798.86	31.15
799.164	31.66
799.468	29.91
799.771	30.37
800.074	31.21
800.378	33.26
800.681	32.17
800.984	34.33
801.288	35.6
801.591	35.6
801.894	35.73
802.197	35.56
802.5	36.27
802.803	34.18
803.105	32.4
803.408	33.1
803.711	34.58
804.014	37.42
804.316	38.25
804.619	39.59
804.921	36.87
805.224	35.81
805.526	33.9
805.828	36.28
806.13	36.63
806.433	37.93
806.735	39.4
807.037	38.3
807.339	37.63
807.641	36.33
807.942	37.02
808.244	35.94
808.546	35.16
808.848	33.34
809.149	33.78
809.451	31.89
809.752	32.7
810.054	34.41
810.355	35.76
810.656	36.71
810.958	37.68
811.259	36.72
811.56	36.17
811.861	36.52
812.162	34.83
812.463	33.66
812.764	32.05
813.065	29.75
813.365	29.68
813.666	31.76
813.967	33.22
814.267	35.42
814.568	35.37
814.868	34.13
815.169	32.29
815.469	31.62
815.769	32.11
816.069	32.77
816.37	34.02
816.67	35.63
816.97	35.99
817.27	34.68
817.57	37.74
817.869	37.98
818.169	36.6
818.469	33.92
818.768	34.9
819.068	33.68
819.368	31.2
819.667	32.2
819.966	35.62
820.266	35.4
820.565	35.38
820.864	36.23
821.163	36.94
821.463	35.86
821.762	37.28
822.06	37.21
822.359	37.34
822.658	35.21
822.957	35.34
823.256	35.22
823.554	35.33
823.853	35.3
824.152	36.37
824.45	36.43
824.748	36.96
825.047	37.22
825.345	37.32
825.643	37.08
825.941	38.05
826.239	37.42
826.538	37.31
826.836	37.97
827.133	38.3
827.431	36.52
827.729	36.1
828.027	37.27
828.324	36.71
828.622	36.48
828.92	36.96
829.217	36.19
829.514	33.59
829.812	33.86
830.109	32.72
830.406	31.85
830.703	31.61
831.001	35.51
831.298	35.15
831.595	36.06
831.891	37.23
832.188	38.85
832.485	36.84
832.782	35.53
833.078	35.09
833.375	36.1
833.672	37.61
833.968	37.34
834.264	39.61
834.561	38.99
834.857	37.09
835.153	36.18
835.449	35.02
835.746	33.71
836.042	33.78
836.338	34.58
836.633	35.23
836.929	35.37
837.225	38.18
837.521	39.04
837.816	40.85
838.112	40.18
838.408	45.04
838.703	44.79
838.998	44.3
839.294	39.28
839.589	38.99
839.884	35.8
840.179	32.65
840.474	31.7
840.77	34.74
841.064	30.1
841.359	28.96
841.654	29.34
841.949	30.8
842.244	34.29
842.538	38.62
842.833	38.37
843.127	40.16
843.422	40.77
843.716	38.62
844.011	38.32
844.305	38.83
844.599	35.28
844.893	32.45
845.187	29.09
845.481	33.2
845.775	28.94
846.069	38.9
846.363	44.33
846.657	48.8
846.95	41.3
847.244	47.42
847.537	35.53
847.831	36.28
848.124	39.66
848.418	31.16
848.711	27.71
849.004	24.15
849.297	16.21
849.591	9.71
849.884	7.25
850.177	12.18
850.47	21.71
850.762	16.04
851.055	19.98
851.348	35.23
851.641	27.03
851.933	22.34
852.226	21.95
852.518	2.17
852.811	18.34
853.103	19.74
853.395	16.6
853.687	22.45
853.98	30.51
854.272	15.42
854.564	23.43
854.856	29.89
855.148	34.53
855.439	40.3
855.731	39.25
856.023	35.41
856.314	25.59
856.606	17.24
856.898	17.99
857.189	23.67
857.48	29.99
857.772	30.97
858.063	29.84
858.354	25.98
858.645	21.35
858.936	20.76
859.227	38.02
859.518	45.48
859.809	49.84
860.1	59.82
860.391	42.35
860.681	28.36
860.972	22.68
861.262	28.11
861.553	23.3
861.843	30.21
862.134	21.77
862.424	46.84
862.714	48.69
863.004	30.8
863.294	32.19
863.584	31.11
863.874	-1.78
864.164	-10.85
864.454	-2.09
864.744	-25.4
865.034	7.32
865.323	9.48
865.613	3.02
865.902	-1.72
866.192	-5.32
866.481	-25.37
866.77	-1.8
867.06	-3.87
867.349	-1.31
867.638	10.34
867.927	24.94
868.216	34.71
868.505	44.52
868.794	50.07
869.082	43.91
869.371	48.19
869.66	30.15
869.948	-1.39
870.237	65.61
870.525	87.27
870.814	38.89
871.102	44.35
871.39	35.61
871.678	11.37
871.967	3.3
872.255	16.41
872.543	-15.89
872.831	4.25
873.118	6.35
873.406	38.12
873.694	-30.45
873.982	55.71
874.269	63.74
874.557	19.99
874.844	-26.75
875.132	32.08
875.419	-151.77
