Data from Cn-i2_Reflection_14-55-48-488.txt Node
Date: Tue Aug 16 14:55:48 CEST 2022
User: IDIV
Spectrometer: FLMS14958
Trigger mode: 0
Integration Time (sec): 1.000000E-1
Scans to average: 10
Electric dark correction enabled: true
Nonlinearity correction enabled: true
Boxcar width: 2
XAxis mode: Wavelengths
Number of Pixels in Spectrum: 2048
>>>>>Begin Spectral Data<<<<<
179.491	106.32
179.869	93.85
180.247	91.9
180.625	249.82
181.003	1004.59
181.381	124.09
181.759	223.3
182.136	-115.44
182.514	-49.73
182.892	-33.67
183.27	23.71
183.647	266.65
184.025	-269.65
184.403	-309.79
184.78	574.4
185.158	190.14
185.536	-57.86
185.913	-1533.72
186.291	21.55
186.668	100.35
187.046	30.05
187.423	-142.77
187.801	-2.29
188.178	-26.09
188.556	-10.36
188.933	-14.36
189.31	0.51
189.688	-11.32
190.065	0.27
190.442	1.6
190.82	16.12
191.197	22.16
191.574	33.02
191.951	34.85
192.329	32.33
192.706	18.44
193.083	10.57
193.46	-4.54
193.837	0.91
194.214	3.74
194.591	27.97
194.968	36.9
195.345	46.64
195.722	43.52
196.099	30.58
196.476	17.96
196.853	5
197.23	1.45
197.607	0.33
197.984	14.83
198.36	24.48
198.737	36.88
199.114	34.69
199.491	37.74
199.867	33.37
200.244	36.6
200.621	21.74
200.997	9.87
201.374	6.37
201.75	2.71
202.127	-12.87
202.504	-2.73
202.88	5.44
203.257	22.63
203.633	28.88
204.01	37.55
204.386	35.87
204.762	42.1
205.139	19.88
205.515	21.96
205.891	6.65
206.268	16.2
206.644	21.26
207.02	18.01
207.396	8.29
207.773	11.76
208.149	19.62
208.525	18.17
208.901	32.54
209.277	33.2
209.653	32.23
210.029	17.34
210.405	13.72
210.781	5.3
211.157	8.44
211.533	11.96
211.909	14.58
212.285	16.11
212.661	16.66
213.037	23.01
213.413	19.46
213.789	28.42
214.164	20.34
214.54	22.43
214.916	21.1
215.292	30.34
215.667	22.37
216.043	29.86
216.419	33.84
216.794	26.81
217.17	28.48
217.545	23.95
217.921	16.94
218.296	15.07
218.672	21.64
219.047	9.96
219.423	18.09
219.798	25.47
220.174	22.8
220.549	21.95
220.924	31.92
221.3	25.72
221.675	22.62
222.05	25.8
222.425	18.34
222.801	21.35
223.176	24.76
223.551	27.24
223.926	19.55
224.301	22.81
224.676	13.94
225.051	14.26
225.426	2.68
225.801	13.14
226.176	8.93
226.551	12.28
226.926	8.83
227.301	15.58
227.676	12.65
228.051	11.53
228.426	10.99
228.801	10.73
229.175	9.7
229.55	7.66
229.925	9.74
230.3	10.12
230.674	11.26
231.049	12.86
231.424	14.01
231.798	12.94
232.173	11.81
232.547	10.53
232.922	8.29
233.296	8.25
233.671	10.63
234.045	12.03
234.42	11.8
234.794	11.24
235.168	10.21
235.543	8.34
235.917	5.67
236.291	5.11
236.666	6.91
237.04	9.47
237.414	9.02
237.788	9.52
238.162	10.52
238.537	9.31
238.911	7.24
239.285	7.23
239.659	7.6
240.033	6.58
240.407	7.45
240.781	8.24
241.155	8.22
241.529	8.31
241.903	8.3
242.277	7.5
242.65	7.02
243.024	6.92
243.398	6.57
243.772	6.69
244.146	6.19
244.519	6.23
244.893	6.24
245.267	6.85
245.64	6.61
246.014	7.01
246.387	6.65
246.761	6.25
247.135	5.99
247.508	5.73
247.882	5.86
248.255	5.79
248.628	5.9
249.002	5.8
249.375	5.97
249.749	5.86
250.122	6.14
250.495	5.91
250.868	6.01
251.242	5.75
251.615	5.89
251.988	5.36
252.361	5.45
252.734	5.83
253.107	5.73
253.481	5.61
253.854	5.83
254.227	5.69
254.6	5
254.973	5.74
255.346	5.66
255.718	5.83
256.091	6.13
256.464	6.81
256.837	6.67
257.21	6.13
257.583	5.32
257.955	5.04
258.328	4.72
258.701	4.59
259.074	4.62
259.446	4.76
259.819	4.92
260.191	4.73
260.564	4.67
260.936	4.67
261.309	4.7
261.681	4.43
262.054	4.53
262.426	4.4
262.799	4.51
263.171	4.67
263.543	5.3
263.916	5.71
264.288	6.15
264.66	6.18
265.033	6.07
265.405	5.99
265.777	5.48
266.149	5.32
266.521	5.33
266.893	5.54
267.265	5.4
267.637	5.43
268.009	5.23
268.381	5.14
268.753	4.93
269.125	4.72
269.497	4.75
269.869	5.13
270.241	5.05
270.613	5.15
270.985	5.36
271.356	5.27
271.728	5.11
272.1	5.01
272.471	4.84
272.843	4.8
273.215	4.91
273.586	4.82
273.958	5.11
274.329	5.33
274.701	5.5
275.072	5.08
275.444	4.93
275.815	5.07
276.187	4.75
276.558	4.63
276.929	4.95
277.301	5.09
277.672	4.81
278.043	5.1
278.415	5.16
278.786	5.26
279.157	5.61
279.528	5.84
279.899	5.59
280.27	5.62
280.641	5.62
281.012	5.29
281.383	5.02
281.754	5.03
282.125	4.86
282.496	4.97
282.867	5.13
283.238	5.12
283.609	5.16
283.98	4.91
284.35	4.63
284.721	4.59
285.092	4.46
285.462	4.68
285.833	4.79
286.204	4.74
286.574	4.66
286.945	4.82
287.315	4.69
287.686	4.72
288.056	5.14
288.427	4.97
288.797	4.92
289.168	4.67
289.538	4.47
289.908	4.04
290.279	4.24
290.649	3.98
291.019	4.1
291.39	4.25
291.76	4.15
292.13	3.96
292.5	4.36
292.87	4.16
293.24	4.09
293.61	4.31
293.98	4.3
294.35	4.2
294.72	4.1
295.09	4.26
295.46	3.98
295.83	4
296.2	3.93
296.57	4.09
296.939	3.99
297.309	3.87
297.679	3.94
298.049	3.94
298.418	3.87
298.788	3.84
299.158	4.19
299.527	4.09
299.897	3.96
300.266	3.87
300.636	3.79
301.005	3.53
301.375	3.82
301.744	3.88
302.113	4.07
302.483	4.29
302.852	4.62
303.221	4.53
303.591	4.67
303.96	4.79
304.329	4.6
304.698	4.34
305.067	4.25
305.436	4.43
305.806	4.55
306.175	4.43
306.544	4.62
306.913	4.71
307.282	4.25
307.65	3.95
308.019	4.02
308.388	3.9
308.757	3.95
309.126	4
309.495	3.94
309.863	3.91
310.232	3.48
310.601	3.02
310.969	3.08
311.338	3.28
311.707	3.33
312.075	3.84
312.444	4.12
312.812	3.98
313.181	3.87
313.549	4
313.918	4.14
314.286	4.44
314.654	4.61
315.023	4.47
315.391	4.13
315.759	3.95
316.127	3.92
316.496	4.09
316.864	4.19
317.232	4.33
317.6	4.13
317.968	3.93
318.336	3.65
318.704	3.76
319.072	4.01
319.44	4.36
319.808	4.63
320.176	4.99
320.544	5.09
320.912	4.96
321.28	4.79
321.647	4.28
322.015	3.88
322.383	3.68
322.75	3.64
323.118	3.49
323.486	3.69
323.853	3.85
324.221	3.65
324.588	3.65
324.956	3.58
325.323	3.44
325.691	3.56
326.058	3.52
326.426	3.51
326.793	3.59
327.16	3.78
327.528	3.54
327.895	3.7
328.262	3.7
328.629	3.43
328.996	3.16
329.363	3.43
329.731	3.45
330.098	3.52
330.465	4.06
330.832	3.9
331.199	3.69
331.566	3.57
331.932	3.67
332.299	3.37
332.666	3.56
333.033	3.34
333.4	3.51
333.766	3.39
334.133	3.56
334.5	3.56
334.867	3.69
335.233	3.32
335.6	3.24
335.966	3.4
336.333	3.46
336.699	3.79
337.066	4.16
337.432	4.27
337.799	4.12
338.165	4.06
338.531	3.55
338.898	3.62
339.264	3.45
339.63	3.52
339.996	3.5
340.363	3.75
340.729	3.63
341.095	3.78
341.461	3.56
341.827	3.5
342.193	3.41
342.559	3.31
342.925	3.44
343.291	3.32
343.657	3.56
344.023	3.65
344.388	3.6
344.754	3.44
345.12	3.8
345.486	3.68
345.851	3.63
346.217	3.68
346.583	3.7
346.948	3.47
347.314	3.53
347.679	3.39
348.045	3.23
348.41	3.06
348.776	2.99
349.141	2.86
349.507	3.12
349.872	3.47
350.237	3.41
350.603	3.59
350.968	3.77
351.333	3.7
351.698	3.65
352.063	3.92
352.428	3.79
352.794	3.71
353.159	3.55
353.524	3.52
353.889	3.4
354.254	3.33
354.618	3.14
354.983	3.22
355.348	3.16
355.713	3.35
356.078	3.34
356.443	3.55
356.807	3.67
357.172	3.49
357.537	3.31
357.901	3.5
358.266	3.36
358.63	3.26
358.995	3.31
359.359	3.5
359.724	3.41
360.088	3.5
360.453	3.66
360.817	3.73
361.181	3.63
361.546	3.63
361.91	3.59
362.274	3.61
362.638	3.58
363.003	3.5
363.367	3.47
363.731	3.37
364.095	3.22
364.459	3.27
364.823	3.22
365.187	3.42
365.551	3.66
365.915	3.63
366.279	3.61
366.642	3.64
367.006	3.48
367.37	3.48
367.734	3.37
368.097	3.61
368.461	3.51
368.825	3.5
369.188	3.4
369.552	3.66
369.915	3.39
370.279	3.63
370.642	3.66
371.006	3.61
371.369	3.55
371.732	3.6
372.096	3.44
372.459	3.44
372.822	3.6
373.186	3.61
373.549	3.63
373.912	3.73
374.275	3.7
374.638	3.75
375.001	3.79
375.364	3.77
375.727	3.82
376.09	3.93
376.453	3.75
376.816	3.68
377.179	3.6
377.542	3.39
377.904	3.36
378.267	3.61
378.63	3.65
378.993	3.67
379.355	3.92
379.718	3.94
380.08	3.82
380.443	3.92
380.806	4.03
381.168	4.12
381.53	4.29
381.893	4.27
382.255	4.18
382.618	4.3
382.98	4.23
383.342	4.27
383.704	4.33
384.067	4.46
384.429	4.44
384.791	4.46
385.153	4.32
385.515	4.29
385.877	4.11
386.239	4.33
386.601	4.47
386.963	4.56
387.325	4.59
387.687	4.71
388.049	4.55
388.41	4.59
388.772	4.59
389.134	4.7
389.496	4.7
389.857	4.77
390.219	4.89
390.58	4.93
390.942	4.9
391.303	4.94
391.665	4.98
392.026	4.8
392.388	4.95
392.749	5.11
393.111	5.19
393.472	5.14
393.833	5.26
394.194	5.1
394.556	5.02
394.917	5
395.278	5.09
395.639	5
396	5.03
396.361	5.17
396.722	5.33
397.083	5.38
397.444	5.49
397.805	5.62
398.166	5.57
398.526	5.47
398.887	5.46
399.248	5.51
399.609	5.49
399.969	5.6
400.33	5.59
400.691	5.61
401.051	5.45
401.412	5.46
401.772	5.48
402.133	5.56
402.493	5.5
402.853	5.77
403.214	5.77
403.574	5.77
403.934	5.87
404.295	5.94
404.655	5.92
405.015	6.02
405.375	6.06
405.735	6.03
406.095	6.07
406.455	5.95
406.815	5.88
407.175	5.84
407.535	5.89
407.895	6.01
408.255	6.15
408.615	6.23
408.975	6.14
409.334	6.22
409.694	6.02
410.054	6.04
410.413	5.95
410.773	6
411.133	5.92
411.492	6.02
411.852	6.02
412.211	6.05
412.571	6.15
412.93	6.11
413.289	6.03
413.649	5.99
414.008	6.08
414.367	6.06
414.726	6.12
415.086	6.14
415.445	6.17
415.804	6.16
416.163	6.07
416.522	6.09
416.881	6.14
417.24	6.11
417.599	6.13
417.958	6.1
418.316	6.16
418.675	6.1
419.034	6.16
419.393	6.11
419.751	6.14
420.11	6.06
420.469	6.11
420.827	6.08
421.186	6.09
421.544	6.1
421.903	6.13
422.261	6.11
422.62	6.2
422.978	6.21
423.336	6.24
423.695	6.26
424.053	6.27
424.411	6.2
424.769	6.21
425.128	6.2
425.486	6.21
425.844	6.19
426.202	6.21
426.56	6.19
426.918	6.19
427.276	6.19
427.634	6.26
427.991	6.3
428.349	6.32
428.707	6.33
429.065	6.36
429.423	6.45
429.78	6.45
430.138	6.41
430.495	6.44
430.853	6.53
431.211	6.37
431.568	6.41
431.925	6.48
432.283	6.47
432.64	6.41
432.998	6.5
433.355	6.45
433.712	6.35
434.069	6.42
434.427	6.38
434.784	6.43
435.141	6.57
435.498	6.72
435.855	6.73
436.212	6.76
436.569	6.68
436.926	6.46
437.283	6.41
437.64	6.35
437.996	6.37
438.353	6.44
438.71	6.47
439.067	6.47
439.423	6.48
439.78	6.47
440.137	6.47
440.493	6.51
440.85	6.49
441.206	6.44
441.563	6.42
441.919	6.38
442.275	6.33
442.632	6.3
442.988	6.34
443.344	6.38
443.7	6.42
444.057	6.54
444.413	6.6
444.769	6.67
445.125	6.71
445.481	6.73
445.837	6.65
446.193	6.66
446.549	6.6
446.905	6.6
447.26	6.57
447.616	6.6
447.972	6.64
448.328	6.71
448.683	6.65
449.039	6.69
449.395	6.76
449.75	6.74
450.106	6.64
450.461	6.7
450.817	6.62
451.172	6.66
451.527	6.66
451.883	6.73
452.238	6.81
452.593	6.86
452.949	6.86
453.304	6.93
453.659	7
454.014	6.95
454.369	7.01
454.724	6.88
455.079	6.88
455.434	6.92
455.789	6.95
456.144	6.94
456.499	7
456.853	6.95
457.208	6.98
457.563	6.97
457.918	6.99
458.272	7.05
458.627	7.09
458.981	7.03
459.336	7.04
459.69	7.01
460.045	7.07
460.399	7.06
460.754	7.07
461.108	7.11
461.462	7.13
461.817	7.06
462.171	7.07
462.525	7.14
462.879	7.09
463.233	7.02
463.587	7.03
463.941	7.01
464.295	6.97
464.649	6.98
465.003	7.12
465.357	7.11
465.711	7.17
466.065	7.18
466.418	7.21
466.772	7.22
467.126	7.25
467.479	7.25
467.833	7.26
468.186	7.22
468.54	7.19
468.893	7.23
469.247	7.24
469.6	7.2
469.954	7.3
470.307	7.33
470.66	7.22
471.013	7.19
471.367	7.27
471.72	7.23
472.073	7.24
472.426	7.28
472.779	7.29
473.132	7.23
473.485	7.25
473.838	7.22
474.191	7.13
474.544	7.16
474.896	7.11
475.249	7.13
475.602	7.22
475.955	7.32
476.307	7.31
476.66	7.31
477.012	7.35
477.365	7.26
477.717	7.27
478.07	7.25
478.422	7.34
478.775	7.35
479.127	7.42
479.479	7.5
479.831	7.53
480.184	7.5
480.536	7.46
480.888	7.45
481.24	7.44
481.592	7.45
481.944	7.48
482.296	7.51
482.648	7.47
483	7.45
483.352	7.45
483.703	7.43
484.055	7.46
484.407	7.49
484.759	7.49
485.11	7.47
485.462	7.45
485.813	7.43
486.165	7.36
486.516	7.37
486.868	7.45
487.219	7.49
487.571	7.51
487.922	7.58
488.273	7.59
488.624	7.61
488.976	7.62
489.327	7.61
489.678	7.57
490.029	7.61
490.38	7.59
490.731	7.67
491.082	7.74
491.433	7.81
491.784	7.83
492.135	7.85
492.485	7.84
492.836	7.81
493.187	7.83
493.537	7.82
493.888	7.84
494.239	7.88
494.589	7.95
494.94	7.99
495.29	8.09
495.641	8.16
495.991	8.26
496.341	8.34
496.692	8.35
497.042	8.42
497.392	8.39
497.742	8.38
498.092	8.39
498.442	8.42
498.793	8.38
499.143	8.47
499.493	8.54
499.842	8.67
500.192	8.78
500.542	8.97
500.892	8.97
501.242	9.02
501.591	8.99
501.941	8.96
502.291	8.89
502.64	8.99
502.99	9.04
503.339	9.05
503.689	9.1
504.038	9.2
504.388	9.31
504.737	9.39
505.086	9.5
505.436	9.65
505.785	9.67
506.134	9.66
506.483	9.77
506.832	9.86
507.181	9.88
507.53	9.96
507.879	10.05
508.228	10.04
508.577	10.1
508.926	10.23
509.275	10.29
509.624	10.37
509.972	10.41
510.321	10.42
510.67	10.46
511.018	10.52
511.367	10.61
511.715	10.73
512.064	10.89
512.412	10.95
512.761	11.09
513.109	11.18
513.457	11.27
513.806	11.22
514.154	11.3
514.502	11.33
514.85	11.33
515.198	11.37
515.546	11.56
515.894	11.65
516.242	11.74
516.59	11.86
516.938	11.97
517.286	12.04
517.634	12.11
517.981	12.21
518.329	12.31
518.677	12.41
519.024	12.49
519.372	12.56
519.72	12.65
520.067	12.72
520.415	12.78
520.762	12.83
521.109	12.94
521.457	13.01
521.804	13.04
522.151	13.14
522.498	13.23
522.846	13.29
523.193	13.37
523.54	13.53
523.887	13.59
524.234	13.59
524.581	13.67
524.928	13.74
525.275	13.75
525.621	13.8
525.968	13.9
526.315	13.9
526.662	13.92
527.008	13.92
527.355	13.96
527.701	14.05
528.048	14.12
528.394	14.2
528.741	14.28
529.087	14.34
529.434	14.33
529.78	14.3
530.126	14.28
530.472	14.28
530.819	14.3
531.165	14.38
531.511	14.51
531.857	14.59
532.203	14.62
532.549	14.63
532.895	14.66
533.241	14.66
533.586	14.71
533.932	14.77
534.278	14.81
534.624	14.79
534.969	14.82
535.315	14.87
535.661	14.87
536.006	14.9
536.352	14.99
536.697	15.04
537.042	15.06
537.388	15.08
537.733	15.09
538.078	15.12
538.424	15.11
538.769	15.11
539.114	15.13
539.459	15.19
539.804	15.21
540.149	15.26
540.494	15.35
540.839	15.37
541.184	15.4
541.529	15.43
541.873	15.44
542.218	15.4
542.563	15.43
542.908	15.43
543.252	15.41
543.597	15.45
543.941	15.5
544.286	15.49
544.63	15.55
544.975	15.73
545.319	15.86
545.663	16
546.007	16.12
546.352	16.15
546.696	16.05
547.04	16.01
547.384	15.92
547.728	15.86
548.072	15.83
548.416	15.77
548.76	15.74
549.104	15.72
549.448	15.72
549.791	15.74
550.135	15.76
550.479	15.77
550.823	15.84
551.166	15.86
551.51	15.87
551.853	15.97
552.197	15.92
552.54	15.93
552.883	15.92
553.227	15.93
553.57	15.94
553.913	15.98
554.257	15.93
554.6	15.93
554.943	15.93
555.286	15.84
555.629	15.8
555.972	15.85
556.315	15.88
556.658	15.93
557.001	15.99
557.343	16.07
557.686	16.02
558.029	16.02
558.371	16.02
558.714	15.96
559.057	15.97
559.399	16.01
559.742	16.08
560.084	16.06
560.427	16.11
560.769	16.1
561.111	16.05
561.453	16.02
561.796	15.99
562.138	15.99
562.48	16.02
562.822	16.07
563.164	16.04
563.506	16.04
563.848	16.05
564.19	15.93
564.532	15.94
564.874	15.91
565.215	15.93
565.557	15.86
565.899	15.77
566.24	15.66
566.582	15.66
566.924	15.54
567.265	15.5
567.606	15.59
567.948	15.66
568.289	15.65
568.631	15.68
568.972	15.62
569.313	15.49
569.654	15.38
569.995	15.29
570.336	15.3
570.677	15.34
571.018	15.43
571.359	15.4
571.7	15.37
572.041	15.35
572.382	15.3
572.723	15.18
573.064	15.14
573.404	15.1
573.745	15.07
574.085	15.02
574.426	15.07
574.766	15.04
575.107	15.05
575.447	15.02
575.788	15.02
576.128	14.98
576.468	14.98
576.808	15
577.149	14.92
577.489	14.88
577.829	14.85
578.169	14.94
578.509	14.91
578.849	14.9
579.189	14.81
579.529	14.84
579.868	14.72
580.208	14.62
580.548	14.72
580.887	14.78
581.227	14.7
581.567	14.71
581.906	14.76
582.246	14.63
582.585	14.61
582.925	14.65
583.264	14.54
583.603	14.45
583.942	14.47
584.282	14.52
584.621	14.42
584.96	14.5
585.299	14.56
585.638	14.6
585.977	14.51
586.316	14.56
586.655	14.54
586.994	14.46
587.332	14.34
587.671	14.34
588.01	14.24
588.348	14.14
588.687	14.15
589.026	14.09
589.364	14.15
589.703	14.13
590.041	14.24
590.379	14.23
590.718	14.37
591.056	14.34
591.394	14.48
591.732	14.43
592.07	14.44
592.409	14.35
592.747	14.31
593.085	14.2
593.423	14.22
593.76	14.18
594.098	14.18
594.436	14.14
594.774	14.23
595.112	14.23
595.449	14.36
595.787	14.35
596.124	14.45
596.462	14.27
596.799	14.27
597.137	14.24
597.474	14.23
597.812	14.15
598.149	14.31
598.486	14.23
598.823	14.21
599.16	14.18
599.498	14.24
599.835	14.07
600.172	14.03
600.509	14.03
600.845	14.11
601.182	14.14
601.519	14.33
601.856	14.38
602.193	14.44
602.529	14.38
602.866	14.3
603.202	14.13
603.539	14.14
603.875	14.01
604.212	14.05
604.548	14.05
604.885	14.05
605.221	14
605.557	13.95
605.893	13.93
606.23	13.84
606.566	13.81
606.902	13.91
607.238	13.98
607.574	13.92
607.91	13.98
608.245	14.06
608.581	14.01
608.917	14.03
609.253	14.22
609.588	14.24
609.924	14.24
610.26	14.31
610.595	14.36
610.931	14.27
611.266	14.26
611.601	14.2
611.937	14.16
612.272	14.52
612.607	14.55
612.942	14.57
613.278	14.64
613.613	14.57
613.948	14.12
614.283	14.09
614.618	14.17
614.953	14.03
615.287	13.95
615.622	13.81
615.957	13.62
616.292	13.47
616.626	13.43
616.961	13.42
617.295	13.36
617.63	13.27
617.964	13.19
618.299	13.29
618.633	13.42
618.968	13.45
619.302	13.64
619.636	13.51
619.97	13.33
620.304	13.18
620.638	13.17
620.972	13.07
621.306	13.27
621.64	13.36
621.974	13.39
622.308	13.34
622.642	13.42
622.976	13.5
623.309	13.45
623.643	13.3
623.977	13.33
624.31	13.16
624.644	12.96
624.977	13.1
625.31	13.16
625.644	13.26
625.977	13.3
626.31	13.35
626.643	13.25
626.977	13.23
627.31	13.13
627.643	13.16
627.976	13.22
628.309	13.18
628.642	13.1
628.974	13.1
629.307	13.11
629.64	13.1
629.973	13.17
630.305	13.25
630.638	13.31
630.971	13.38
631.303	13.34
631.636	13.32
631.968	13.49
632.3	13.52
632.633	13.22
632.965	13.21
633.297	13.21
633.629	13.13
633.961	13.11
634.293	13.28
634.625	13.17
634.957	13.02
635.289	12.95
635.621	12.82
635.953	12.75
636.285	12.81
636.617	12.77
636.948	12.88
637.28	12.8
637.611	12.71
637.943	12.57
638.274	12.59
638.606	12.41
638.937	12.36
639.269	12.28
639.6	12.26
639.931	12.25
640.262	12.26
640.593	12.23
640.924	12.31
641.255	12.38
641.586	12.43
641.917	12.27
642.248	12.25
642.579	12.18
642.91	11.92
643.24	11.77
643.571	11.63
643.902	11.49
644.232	11.35
644.563	11.34
644.893	11.27
645.224	11.41
645.554	11.53
645.884	11.57
646.215	11.62
646.545	11.65
646.875	11.53
647.205	11.42
647.535	11.55
647.865	11.5
648.195	11.48
648.525	11.23
648.855	11.28
649.185	11.17
649.515	11.09
649.844	11.03
650.174	11.02
650.504	11.02
650.833	10.8
651.163	10.83
651.492	10.84
651.822	11
652.151	10.86
652.48	10.94
652.81	10.9
653.139	10.68
653.468	10.58
653.797	10.77
654.126	10.81
654.455	10.83
654.784	10.84
655.113	10.96
655.442	10.89
655.771	10.68
656.099	10.64
656.428	10.79
656.757	10.72
657.085	10.65
657.414	10.72
657.742	10.63
658.071	10.63
658.399	10.52
658.728	10.35
659.056	10.28
659.384	10.41
659.712	10.41
660.04	10.34
660.369	10.34
660.697	10.34
661.025	10.19
661.353	10.15
661.68	10.23
662.008	10.32
662.336	10.4
662.664	10.36
662.991	10.41
663.319	10.4
663.647	10.26
663.974	10.19
664.302	10.24
664.629	10.1
664.956	10.11
665.284	10.29
665.611	10.38
665.938	10.14
666.265	10.25
666.593	10.19
666.92	10.14
667.247	9.93
667.574	10.2
667.9	10
668.227	9.97
668.554	9.91
668.881	10.02
669.208	9.77
669.534	9.89
669.861	9.86
670.187	9.95
670.514	9.97
670.84	10.12
671.167	10.12
671.493	10.16
671.819	10.12
672.146	10.15
672.472	10.15
672.798	10.03
673.124	10.15
673.45	10.22
673.776	10.2
674.102	10.41
674.428	10.55
674.754	10.48
675.079	10.7
675.405	10.66
675.731	10.62
676.056	10.49
676.382	10.95
676.707	10.77
677.033	11.33
677.358	11.31
677.684	11.64
678.009	11.31
678.334	11.41
678.659	10.89
678.985	11.11
679.31	10.97
679.635	10.82
679.96	10.86
680.285	11.14
680.609	11.05
680.934	11.23
681.259	11.44
681.584	11.36
681.908	11.31
682.233	11.7
682.558	11.95
682.882	12.18
683.207	12.42
683.531	12.94
683.855	12.96
684.18	12.91
684.504	12.98
684.828	13.27
685.152	13.2
685.476	13.26
685.8	13.45
686.124	13.38
686.448	13.57
686.772	13.77
687.096	14.1
687.42	14.08
687.744	14.46
688.067	14.4
688.391	14.47
688.714	14.45
689.038	14.9
689.361	15.24
689.685	15.79
690.008	16.22
690.331	16.53
690.655	16.83
690.978	16.87
691.301	16.88
691.624	16.97
691.947	17.3
692.27	17.71
692.593	18.09
692.916	18.41
693.239	18.61
693.561	18.86
693.884	18.7
694.207	19.03
694.529	19.01
694.852	18.97
695.174	19.11
695.497	19.55
695.819	19.73
696.142	20.3
696.464	20.86
696.786	21.05
697.108	21.29
697.43	21.31
697.753	21.5
698.075	21.76
698.397	21.82
698.718	21.77
699.04	22.11
699.362	22.07
699.684	22.23
700.006	22.6
700.327	23.2
700.649	23.36
700.97	23.86
701.292	23.97
701.613	24.39
701.935	24.64
702.256	25.06
702.577	25.63
702.898	26.46
703.22	26.57
703.541	26.64
703.862	27.02
704.183	27.09
704.504	26.65
704.825	26.84
705.145	27.04
705.466	26.79
705.787	26.44
706.108	27.23
706.428	27.79
706.749	28.01
707.069	28.52
707.39	29.13
707.71	29.11
708.03	28.94
708.351	28.99
708.671	29.19
708.991	29.65
709.311	29.85
709.631	29.88
709.951	30.23
710.271	30.21
710.591	30.11
710.911	30.39
711.231	30.64
711.551	30.74
711.87	31.19
712.19	31.03
712.51	30.62
712.829	30.8
713.149	30.45
713.468	30.26
713.787	30.75
714.107	31.02
714.426	31.25
714.745	31.83
715.064	31.92
715.383	32.1
715.702	32.18
716.021	31.97
716.34	31.85
716.659	32.39
716.978	32.34
717.297	32.8
717.615	33.26
717.934	33.45
718.253	33.41
718.571	33.4
718.89	33.66
719.208	33.69
719.527	34.05
719.845	34.01
720.163	33.88
720.481	33.34
720.8	33.26
721.118	33
721.436	33.27
721.754	33.62
722.072	34.3
722.39	34.62
722.707	34.94
723.025	34.82
723.343	34.83
723.661	34.51
723.978	34.87
724.296	35.09
724.613	35.53
724.931	35.88
725.248	35.74
725.565	35.42
725.883	35
726.2	34.95
726.517	35.34
726.834	34.73
727.151	34.35
727.468	34.72
727.785	34.47
728.102	33.93
728.419	35.15
728.736	35.5
729.052	35.24
729.369	35.56
729.686	35.91
730.002	35.78
730.319	35.78
730.635	36.23
730.951	36.57
731.268	36.74
731.584	36.56
731.9	36.6
732.216	36.62
732.533	36.67
732.849	36.64
733.165	36.62
733.481	37.13
733.796	37
734.112	36.25
734.428	36.15
734.744	36.62
735.059	36.66
735.375	37.48
735.691	38.08
736.006	38.43
736.322	38.43
736.637	38.37
736.952	37.88
737.268	37.82
737.583	37.87
737.898	38.22
738.213	37.84
738.528	37.64
738.843	37.81
739.158	37.74
739.473	37.18
739.788	37.99
740.102	38.18
740.417	38.25
740.732	38.64
741.046	38.76
741.361	38.48
741.675	39.15
741.99	38.85
742.304	39.04
742.618	39.62
742.933	39.99
743.247	40.17
743.561	41.13
743.875	41.16
744.189	40.66
744.503	40.12
744.817	39.43
745.131	39.09
745.445	38.43
745.758	38.4
746.072	38.74
746.386	38.82
746.699	38.58
747.013	38.22
747.326	38.44
747.64	37.57
747.953	37.6
748.266	37.57
748.58	38.38
748.893	38.77
749.206	39.94
749.519	39.47
749.832	39.52
750.145	38.89
750.458	38.8
750.771	38.38
751.083	38.43
751.396	38.25
751.709	37.39
752.021	37.17
752.334	36.75
752.646	37.63
752.959	37.65
753.271	38.85
753.584	38.94
753.896	39.27
754.208	38.52
754.52	38.84
754.832	39.01
755.144	39.05
755.456	38.67
755.768	39.65
756.08	39.46
756.392	39.56
756.704	39.72
757.015	39.84
757.327	38.89
757.638	39.4
757.95	39.7
758.261	39.86
758.573	39.94
758.884	40.11
759.195	39.42
759.507	39.01
759.818	38.7
760.129	38.77
760.44	38.82
760.751	39.14
761.062	38.28
761.373	38.42
761.684	38.29
761.994	39.08
762.305	39.14
762.616	39.73
762.926	39.94
763.237	39.79
763.547	38.88
763.858	38.65
764.168	39.02
764.478	38.97
764.789	38.48
765.099	39.03
765.409	39.49
765.719	38.75
766.029	38.64
766.339	39.15
766.649	38.73
766.959	38.61
767.269	39.15
767.578	38.54
767.888	38.55
768.198	38.49
768.507	37.97
768.817	38.32
769.126	38.49
769.435	38.98
769.745	39.24
770.054	39.19
770.363	39.39
770.672	39.41
770.981	39.19
771.29	39.48
771.599	39.93
771.908	38.73
772.217	38.66
772.526	38.29
772.835	38.11
773.143	38.54
773.452	39.77
773.76	40.15
774.069	42.13
774.377	41.6
774.686	41.35
774.994	40.68
775.302	40.74
775.611	39.06
775.919	39.55
776.227	39.32
776.535	39.32
776.843	39.77
777.151	41.25
777.459	41.04
777.766	40.53
778.074	40.14
778.382	39.77
778.689	39.33
778.997	39.15
779.304	39.17
779.612	39.49
779.919	39.91
780.227	38.48
780.534	38.57
780.841	38.99
781.148	37.86
781.455	38.67
781.762	39.46
782.069	39.87
782.376	40.57
782.683	41.63
782.99	40.84
783.296	40.46
783.603	40.45
783.91	38.07
784.216	39.12
784.523	40.17
784.829	40.25
785.136	40.48
785.442	42.12
785.748	40.7
786.054	40.46
786.36	39.58
786.667	38.67
786.973	38.86
787.278	38.67
787.584	37.62
787.89	38.62
788.196	39.13
788.502	38.18
788.807	38.6
789.113	38.56
789.418	37.97
789.724	38.29
790.029	38.47
790.335	38.07
790.64	39.61
790.945	41.09
791.25	40.91
791.556	42.08
791.861	42.57
792.166	40.15
792.471	39.66
792.775	39.04
793.08	39.12
793.385	40.35
793.69	41.89
793.994	42.53
794.299	43.7
794.603	44.23
794.908	44.82
795.212	43.8
795.517	43.6
795.821	43.04
796.125	43.26
796.429	41.61
796.733	42.09
797.037	39.73
797.341	39.22
797.645	37.25
797.949	36.42
798.253	36.15
798.557	38.08
798.86	38
799.164	38.37
799.468	39.83
799.771	39.54
800.074	38.99
800.378	38.4
800.681	39.09
800.984	38.39
801.288	37.79
801.591	38.89
801.894	39.52
802.197	38.58
802.5	38.27
802.803	38.83
803.105	37.99
803.408	38.86
803.711	40.52
804.014	43.15
804.316	43.48
804.619	43.65
804.921	42.18
805.224	40.99
805.526	39.38
805.828	40.85
806.13	40.48
806.433	40.84
806.735	39.99
807.037	40.46
807.339	39.1
807.641	38.98
807.942	38.82
808.244	39.66
808.546	38.27
808.848	37.65
809.149	39.01
809.451	39.79
809.752	37.45
810.054	39
810.355	41.54
810.656	42.71
810.958	42.44
811.259	44.5
811.56	43.87
811.861	41.1
812.162	37.3
812.463	36.72
812.764	35.7
813.065	34.26
813.365	32.81
813.666	34.35
813.967	35.62
814.267	37.64
814.568	38.98
814.868	40.21
815.169	39.13
815.469	35.83
815.769	36.97
816.069	36.19
816.37	39.34
816.67	39.49
816.97	40.8
817.27	38.93
817.57	41.52
817.869	39.15
818.169	39.89
818.469	39.99
818.768	40.47
819.068	37.31
819.368	37.48
819.667	36.9
819.966	38.05
820.266	37.5
820.565	39.26
820.864	38.54
821.163	38.79
821.463	39.49
821.762	39.75
822.06	38.6
822.359	38.9
822.658	37.74
822.957	37.48
823.256	38.01
823.554	38.31
823.853	38.58
824.152	38.86
824.45	38.5
824.748	38.22
825.047	38.23
825.345	37.59
825.643	37.53
825.941	38.58
826.239	39.78
826.538	39.29
826.836	38.54
827.133	39.27
827.431	38.15
827.729	36.49
828.027	37.19
828.324	38.34
828.622	38.13
828.92	38.25
829.217	37.84
829.514	37.2
829.812	36.56
830.109	35.78
830.406	35.6
830.703	35.49
831.001	36
831.298	37.96
831.595	40.76
831.891	40.01
832.188	40.79
832.485	40.85
832.782	40.6
833.078	37.61
833.375	36.42
833.672	39.56
833.968	39.61
834.264	39.34
834.561	39.21
834.857	40.92
835.153	38.71
835.449	38.59
835.746	37.24
836.042	36.09
836.338	36.32
836.633	37.64
836.929	37.9
837.225	41.34
837.521	44.4
837.816	45.51
838.112	46.54
838.408	46.83
838.703	42.18
838.998	44.23
839.294	43.48
839.589	41.08
839.884	43.31
840.179	45.31
840.474	44.5
840.77	40.54
841.064	42.12
841.359	40.31
841.654	39.16
841.949	42.1
842.244	47.61
842.538	46.74
842.833	46.92
843.127	45.82
843.422	43.32
843.716	42.08
844.011	41.76
844.305	37.21
844.599	42.93
844.893	35.6
845.187	32.63
845.481	28.42
845.775	21.99
846.069	16.84
846.363	25.35
846.657	17.98
846.95	26.69
847.244	33.36
847.537	29.27
847.831	39.13
848.124	47.55
848.418	46.37
848.711	51.35
849.004	51.21
849.297	28.99
849.591	27.12
849.884	24.43
850.177	31.13
850.47	37.77
850.762	40.93
851.055	52.86
851.348	53.82
851.641	43.19
851.933	39.73
852.226	49.39
852.518	45.13
852.811	52.66
853.103	50.06
853.395	48.14
853.687	46.34
853.98	48.55
854.272	41.52
854.564	49.86
854.856	54.08
855.148	59.04
855.439	51.96
855.731	60.68
856.023	62.29
856.314	63.88
856.606	53.44
856.898	49.44
857.189	42.62
857.48	39.56
857.772	34.88
858.063	34.57
858.354	44.42
858.645	41.71
858.936	39.95
859.227	53.3
859.518	60.42
859.809	64.45
860.1	57.99
860.391	51.28
860.681	40.04
860.972	21.94
861.262	15.9
861.553	25.71
861.843	46.03
862.134	52.77
862.424	72.94
862.714	69.99
863.004	40.66
863.294	57.7
863.584	38.32
863.874	1.58
864.164	2.01
864.454	4.16
864.744	-62.27
865.034	3.63
865.323	29.67
865.613	39.39
865.902	44.38
866.192	48.33
866.481	34.69
866.77	29.25
867.06	26.04
867.349	20.57
867.638	38.03
867.927	21.51
868.216	37.49
868.505	45.27
868.794	44.23
869.082	31.36
869.371	38.84
869.66	27.08
869.948	-23.69
870.237	101.06
870.525	94.33
870.814	81.29
871.102	73.98
871.39	70.66
871.678	57.15
871.967	59.93
872.255	59.62
872.543	68.71
872.831	68.45
873.118	69.33
873.406	114.65
873.694	121.33
873.982	62.99
874.269	121.45
874.557	136.67
874.844	102.16
875.132	107.2
875.419	481.88
