Data from Gg-i1_Reflection_16-15-18-332.txt Node
Date: Tue Aug 16 16:15:18 CEST 2022
User: IDIV
Spectrometer: FLMS14958
Trigger mode: 0
Integration Time (sec): 1.000000E-1
Scans to average: 10
Electric dark correction enabled: true
Nonlinearity correction enabled: true
Boxcar width: 2
XAxis mode: Wavelengths
Number of Pixels in Spectrum: 2048
>>>>>Begin Spectral Data<<<<<
179.491	-13.73
179.869	-47.31
180.247	-97.93
180.625	-1940.07
181.003	335.68
181.381	152.45
181.759	28.56
182.136	266.5
182.514	104.63
182.892	166.56
183.27	-1639.98
183.647	765.67
184.025	112.32
184.403	409.76
184.78	84.02
185.158	266.4
185.536	327.05
185.913	42.53
186.291	-144.41
186.668	-24.93
187.046	47.18
187.423	46.96
187.801	-4.25
188.178	-10.36
188.556	-6.66
188.933	-12.09
189.31	8.51
189.688	9.52
190.065	24.86
190.442	18.69
190.82	12.5
191.197	8.64
191.574	9.6
191.951	2.02
192.329	2.47
192.706	5.76
193.083	13.56
193.46	15.18
193.837	20.39
194.214	20.19
194.591	18.93
194.968	22.31
195.345	25.59
195.722	22.36
196.099	18.85
196.476	26.56
196.853	21.21
197.23	16.71
197.607	9.36
197.984	21.13
198.36	28.72
198.737	32.57
199.114	33.13
199.491	28.99
199.867	22.65
200.244	12.14
200.621	9.26
200.997	6.59
201.374	13.98
201.75	7.31
202.127	-3.21
202.504	-7.9
202.88	-12.19
203.257	-9.28
203.633	-6.15
204.01	-1.83
204.386	-1.22
204.762	-11.51
205.139	-17.72
205.515	-8.09
205.891	6.84
206.268	7.19
206.644	14.27
207.02	20.66
207.396	16.62
207.773	1.06
208.149	0.49
208.525	-0.15
208.901	-7.13
209.277	-5.65
209.653	7.76
210.029	5.82
210.405	11.32
210.781	15.11
211.157	19.17
211.533	16.73
211.909	16.23
212.285	18.27
212.661	18.46
213.037	18.53
213.413	18.13
213.789	23.37
214.164	21.52
214.54	26.59
214.916	21.96
215.292	14.41
215.667	11.29
216.043	10.51
216.419	7.26
216.794	11.68
217.17	27.42
217.545	21.63
217.921	25
218.296	19.35
218.672	15.7
219.047	4.87
219.423	14.49
219.798	13.06
220.174	11.44
220.549	16.02
220.924	19.33
221.3	12.09
221.675	9.42
222.05	8.97
222.425	6.51
222.801	3.08
223.176	7.03
223.551	2.06
223.926	2.47
224.301	5.14
224.676	3.48
225.051	2.1
225.426	12.11
225.801	12.98
226.176	1.34
226.551	3.01
226.926	5.69
227.301	1.3
227.676	1.9
228.051	4.42
228.426	2.9
228.801	0.67
229.175	1.75
229.55	0.75
229.925	1.43
230.3	1.04
230.674	1.7
231.049	0.71
231.424	2.13
231.798	2.47
232.173	4.2
232.547	4.23
232.922	5.76
233.296	4.55
233.671	3.04
234.045	2.46
234.42	2.02
234.794	2.13
235.168	2.46
235.543	3.02
235.917	2.21
236.291	2.11
236.666	1.04
237.04	0.82
237.414	0.81
237.788	1.42
238.162	1.34
238.537	1.42
238.911	1.49
239.285	1.03
239.659	0.86
240.033	1.45
240.407	1.64
240.781	1.34
241.155	1.2
241.529	1.59
241.903	1.75
242.277	1.69
242.65	1.81
243.024	1.7
243.398	1.54
243.772	1.52
244.146	1.55
244.519	1.69
244.893	2
245.267	2.2
245.64	1.85
246.014	1.88
246.387	1.57
246.761	1.46
247.135	1.42
247.508	1.54
247.882	1.39
248.255	1.39
248.628	1.34
249.002	1.27
249.375	1.17
249.749	1.22
250.122	1.54
250.495	1.56
250.868	1.76
251.242	2.14
251.615	2.32
251.988	1.8
252.361	1.91
252.734	1.7
253.107	1.25
253.481	1.11
253.854	1.32
254.227	1.69
254.6	2.09
254.973	2.49
255.346	2.47
255.718	1.93
256.091	1.68
256.464	0.92
256.837	1.23
257.21	1.06
257.583	1.06
257.955	1.31
258.328	1.66
258.701	1.61
259.074	1.63
259.446	1.88
259.819	1.52
260.191	1.53
260.564	1.49
260.936	1.56
261.309	1.37
261.681	1.32
262.054	1.35
262.426	1.13
262.799	1.1
263.171	1.15
263.543	1.29
263.916	0.98
264.288	1.35
264.66	1.32
265.033	1.54
265.405	1.33
265.777	1.56
266.149	1.36
266.521	1.34
266.893	1.29
267.265	1.47
267.637	1.32
268.009	1.22
268.381	1.14
268.753	1
269.125	1.08
269.497	1.17
269.869	1.31
270.241	1.15
270.613	1.25
270.985	1.18
271.356	1.01
271.728	0.95
272.1	1.16
272.471	1.21
272.843	1.3
273.215	1.32
273.586	1.57
273.958	1.38
274.329	1.31
274.701	1.54
275.072	1.64
275.444	1.51
275.815	1.81
276.187	1.85
276.558	1.34
276.929	1.46
277.301	1.18
277.672	1.01
278.043	1.04
278.415	1.28
278.786	1.41
279.157	1.68
279.528	1.81
279.899	1.69
280.27	1.45
280.641	1.23
281.012	1.25
281.383	1.29
281.754	1.43
282.125	1.49
282.496	1.71
282.867	1.58
283.238	1.72
283.609	1.68
283.98	1.83
284.35	1.59
284.721	1.64
285.092	1.44
285.462	1.53
285.833	1.36
286.204	1.38
286.574	1.29
286.945	1.22
287.315	0.93
287.686	1.22
288.056	1.2
288.427	1.35
288.797	1.57
289.168	1.84
289.538	1.64
289.908	1.68
290.279	1.61
290.649	1.54
291.019	1.54
291.39	1.65
291.76	1.57
292.13	1.43
292.5	1.21
292.87	1.29
293.24	0.86
293.61	0.99
293.98	1.1
294.35	1.44
294.72	1.29
295.09	1.51
295.46	1.47
295.83	1.37
296.2	1.14
296.57	1.12
296.939	1.23
297.309	1.09
297.679	1.08
298.049	1.08
298.418	0.94
298.788	0.91
299.158	0.98
299.527	1.2
299.897	1.3
300.266	1.61
300.636	1.56
301.005	1.65
301.375	1.53
301.744	1.56
302.113	1.4
302.483	1.53
302.852	1.29
303.221	1.28
303.591	1.38
303.96	1.2
304.329	0.91
304.698	1.19
305.067	1.16
305.436	0.94
305.806	1.36
306.175	1.53
306.544	1.51
306.913	1.51
307.282	1.61
307.65	1.54
308.019	1.57
308.388	1.54
308.757	1.59
309.126	1.6
309.495	1.31
309.863	1.19
310.232	0.92
310.601	0.65
310.969	0.38
311.338	0.43
311.707	0.61
312.075	0.88
312.444	1
312.812	1.07
313.181	1
313.549	0.69
313.918	0.53
314.286	0.59
314.654	0.78
315.023	0.98
315.391	1.17
315.759	1.09
316.127	1.18
316.496	1.25
316.864	1.13
317.232	1.08
317.6	1.01
317.968	1.16
318.336	1.29
318.704	1.6
319.072	1.65
319.44	1.98
319.808	1.9
320.176	1.8
320.544	1.87
320.912	1.73
321.28	1.66
321.647	1.59
322.015	1.7
322.383	1.64
322.75	1.76
323.118	1.83
323.486	1.58
323.853	1.5
324.221	1.63
324.588	1.55
324.956	1.39
325.323	1.53
325.691	1.3
326.058	1.18
326.426	1.18
326.793	1.23
327.16	1.13
327.528	1.26
327.895	1.08
328.262	1.12
328.629	1.1
328.996	1.11
329.363	1.24
329.731	1.42
330.098	1.66
330.465	1.7
330.832	1.87
331.199	1.76
331.566	1.56
331.932	1.26
332.299	1.16
332.666	1.14
333.033	1.02
333.4	1.12
333.766	0.88
334.133	0.81
334.5	0.74
334.867	0.75
335.233	0.88
335.6	1.19
335.966	1.12
336.333	1.19
336.699	1.24
337.066	0.88
337.432	0.76
337.799	1.13
338.165	0.99
338.531	1.04
338.898	1.27
339.264	1.47
339.63	1.21
339.996	1.52
340.363	1.16
340.729	1.03
341.095	0.75
341.461	0.81
341.827	0.7
342.193	0.91
342.559	1.22
342.925	1.27
343.291	1.18
343.657	1.1
344.023	1
344.388	0.64
344.754	0.62
345.12	0.68
345.486	0.55
345.851	0.68
346.217	0.69
346.583	0.85
346.948	0.78
347.314	0.99
347.679	1
348.045	1.15
348.41	1.09
348.776	1.36
349.141	1.42
349.507	1.39
349.872	1.48
350.237	1.49
350.603	1.18
350.968	0.83
351.333	0.62
351.698	0.52
352.063	0.45
352.428	0.83
352.794	1.18
353.159	1.49
353.524	1.49
353.889	1.52
354.254	1.31
354.618	1.19
354.983	1.17
355.348	1.13
355.713	1.03
356.078	1.23
356.443	1.36
356.807	1.29
357.172	1.28
357.537	1.47
357.901	1.41
358.266	1.34
358.63	1.49
358.995	1.65
359.359	1.61
359.724	1.48
360.088	1.43
360.453	1.47
360.817	1.51
361.181	1.6
361.546	1.59
361.91	1.76
362.274	1.69
362.638	1.49
363.003	1.28
363.367	1.38
363.731	1.32
364.095	1.35
364.459	1.56
364.823	1.75
365.187	1.7
365.551	1.75
365.915	1.78
366.279	1.72
366.642	1.71
367.006	1.86
367.37	1.61
367.734	1.45
368.097	1.48
368.461	1.52
368.825	1.36
369.188	1.53
369.552	1.74
369.915	1.65
370.279	1.68
370.642	1.69
371.006	1.74
371.369	1.68
371.732	1.62
372.096	1.58
372.459	1.55
372.822	1.43
373.186	1.41
373.549	1.58
373.912	1.7
374.275	1.83
374.638	1.88
375.001	1.91
375.364	1.88
375.727	1.87
376.09	1.88
376.453	1.84
376.816	1.8
377.179	1.66
377.542	1.53
377.904	1.55
378.267	1.64
378.63	1.79
378.993	1.92
379.355	1.92
379.718	1.98
380.08	2.01
380.443	1.94
380.806	1.92
381.168	2.16
381.53	2.1
381.893	1.89
382.255	1.88
382.618	1.94
382.98	1.86
383.342	1.79
383.704	1.94
384.067	2.05
384.429	2.04
384.791	2.15
385.153	2.21
385.515	2.27
385.877	2.25
386.239	2.27
386.601	2.02
386.963	2.13
387.325	2.02
387.687	1.9
388.049	1.92
388.41	2.01
388.772	1.9
389.134	1.98
389.496	2.08
389.857	2.08
390.219	2.19
390.58	2.25
390.942	2.23
391.303	2.19
391.665	2.13
392.026	2.07
392.388	2.03
392.749	2.17
393.111	2.13
393.472	2.1
393.833	2
394.194	1.95
394.556	1.92
394.917	1.99
395.278	2.21
395.639	2.33
396	2.37
396.361	2.25
396.722	2.3
397.083	2.22
397.444	2.22
397.805	2.18
398.166	2.32
398.526	2.2
398.887	2.03
399.248	2.01
399.609	2.08
399.969	1.99
400.33	2.04
400.691	2.03
401.051	2.03
401.412	2.07
401.772	2.01
402.133	2.01
402.493	2.04
402.853	1.98
403.214	1.94
403.574	1.95
403.934	1.92
404.295	1.9
404.655	1.95
405.015	2.01
405.375	2.03
405.735	1.97
406.095	2.02
406.455	2.03
406.815	2.03
407.175	2.07
407.535	2.18
407.895	2.29
408.255	2.25
408.615	2.31
408.975	2.35
409.334	2.39
409.694	2.22
410.054	2.25
410.413	2.17
410.773	2.19
411.133	2.19
411.492	2.42
411.852	2.44
412.211	2.53
412.571	2.56
412.93	2.49
413.289	2.4
413.649	2.44
414.008	2.34
414.367	2.24
414.726	2.39
415.086	2.39
415.445	2.36
415.804	2.38
416.163	2.39
416.522	2.32
416.881	2.34
417.24	2.33
417.599	2.34
417.958	2.33
418.316	2.28
418.675	2.28
419.034	2.24
419.393	2.23
419.751	2.27
420.11	2.35
420.469	2.3
420.827	2.32
421.186	2.33
421.544	2.32
421.903	2.31
422.261	2.3
422.62	2.34
422.978	2.32
423.336	2.3
423.695	2.28
424.053	2.31
424.411	2.27
424.769	2.27
425.128	2.26
425.486	2.26
425.844	2.28
426.202	2.24
426.56	2.25
426.918	2.34
427.276	2.31
427.634	2.27
427.991	2.33
428.349	2.37
428.707	2.35
429.065	2.42
429.423	2.43
429.78	2.48
430.138	2.48
430.495	2.38
430.853	2.3
431.211	2.26
431.568	2.25
431.925	2.21
432.283	2.28
432.64	2.33
432.998	2.36
433.355	2.39
433.712	2.45
434.069	2.5
434.427	2.51
434.784	2.52
435.141	2.51
435.498	2.52
435.855	2.45
436.212	2.5
436.569	2.59
436.926	2.6
437.283	2.62
437.64	2.64
437.996	2.63
438.353	2.48
438.71	2.51
439.067	2.46
439.423	2.45
439.78	2.42
440.137	2.47
440.493	2.43
440.85	2.45
441.206	2.4
441.563	2.36
441.919	2.34
442.275	2.33
442.632	2.31
442.988	2.36
443.344	2.38
443.7	2.36
444.057	2.37
444.413	2.31
444.769	2.26
445.125	2.26
445.481	2.3
445.837	2.29
446.193	2.31
446.549	2.3
446.905	2.27
447.26	2.25
447.616	2.2
447.972	2.23
448.328	2.25
448.683	2.27
449.039	2.28
449.395	2.36
449.75	2.34
450.106	2.36
450.461	2.34
450.817	2.35
451.172	2.24
451.527	2.24
451.883	2.22
452.238	2.25
452.593	2.31
452.949	2.39
453.304	2.35
453.659	2.39
454.014	2.4
454.369	2.31
454.724	2.31
455.079	2.31
455.434	2.27
455.789	2.29
456.144	2.34
456.499	2.33
456.853	2.41
457.208	2.42
457.563	2.38
457.918	2.32
458.272	2.32
458.627	2.23
458.981	2.24
459.336	2.25
459.69	2.27
460.045	2.32
460.399	2.38
460.754	2.4
461.108	2.4
461.462	2.4
461.817	2.43
462.171	2.46
462.525	2.49
462.879	2.57
463.233	2.61
463.587	2.57
463.941	2.57
464.295	2.5
464.649	2.5
465.003	2.49
465.357	2.55
465.711	2.57
466.065	2.66
466.418	2.62
466.772	2.67
467.126	2.58
467.479	2.51
467.833	2.54
468.186	2.57
468.54	2.56
468.893	2.6
469.247	2.7
469.6	2.7
469.954	2.7
470.307	2.67
470.66	2.68
471.013	2.62
471.367	2.53
471.72	2.55
472.073	2.58
472.426	2.57
472.779	2.59
473.132	2.7
473.485	2.76
473.838	2.81
474.191	2.75
474.544	2.76
474.896	2.66
475.249	2.59
475.602	2.6
475.955	2.63
476.307	2.56
476.66	2.63
477.012	2.59
477.365	2.58
477.717	2.6
478.07	2.61
478.422	2.52
478.775	2.54
479.127	2.5
479.479	2.46
479.831	2.44
480.184	2.47
480.536	2.45
480.888	2.45
481.24	2.47
481.592	2.48
481.944	2.53
482.296	2.49
482.648	2.41
483	2.34
483.352	2.25
483.703	2.2
484.055	2.21
484.407	2.22
484.759	2.25
485.11	2.31
485.462	2.35
485.813	2.39
486.165	2.43
486.516	2.42
486.868	2.41
487.219	2.41
487.571	2.38
487.922	2.38
488.273	2.39
488.624	2.4
488.976	2.44
489.327	2.49
489.678	2.51
490.029	2.57
490.38	2.58
490.731	2.57
491.082	2.54
491.433	2.56
491.784	2.55
492.135	2.59
492.485	2.61
492.836	2.66
493.187	2.72
493.537	2.76
493.888	2.78
494.239	2.8
494.589	2.89
494.94	2.89
495.29	2.97
495.641	3.05
495.991	3.01
496.341	2.99
496.692	3.01
497.042	3
497.392	3
497.742	3.06
498.092	3.09
498.442	3.09
498.793	3.1
499.143	3.1
499.493	3.15
499.842	3.16
500.192	3.21
500.542	3.29
500.892	3.36
501.242	3.41
501.591	3.41
501.941	3.53
502.291	3.49
502.64	3.55
502.99	3.61
503.339	3.67
503.689	3.69
504.038	3.75
504.388	3.75
504.737	3.71
505.086	3.74
505.436	3.69
505.785	3.68
506.134	3.7
506.483	3.75
506.832	3.87
507.181	3.95
507.53	4
507.879	3.97
508.228	4.02
508.577	3.93
508.926	3.91
509.275	3.92
509.624	3.99
509.972	4.02
510.321	4.06
510.67	4.12
511.018	4.15
511.367	4.19
511.715	4.25
512.064	4.33
512.412	4.36
512.761	4.41
513.109	4.49
513.457	4.48
513.806	4.54
514.154	4.59
514.502	4.67
514.85	4.63
515.198	4.67
515.546	4.71
515.894	4.74
516.242	4.75
516.59	4.82
516.938	4.8
517.286	4.73
517.634	4.71
517.981	4.69
518.329	4.64
518.677	4.68
519.024	4.73
519.372	4.74
519.72	4.78
520.067	4.88
520.415	4.93
520.762	4.96
521.109	4.99
521.457	5.05
521.804	5
522.151	5.03
522.498	5.12
522.846	5.16
523.193	5.22
523.54	5.26
523.887	5.25
524.234	5.21
524.581	5.16
524.928	5.12
525.275	5.16
525.621	5.17
525.968	5.24
526.315	5.29
526.662	5.31
527.008	5.31
527.355	5.34
527.701	5.31
528.048	5.32
528.394	5.35
528.741	5.37
529.087	5.41
529.434	5.46
529.78	5.53
530.126	5.56
530.472	5.65
530.819	5.65
531.165	5.72
531.511	5.7
531.857	5.73
532.203	5.71
532.549	5.74
532.895	5.71
533.241	5.7
533.586	5.71
533.932	5.74
534.278	5.77
534.624	5.85
534.969	5.93
535.315	6
535.661	6
536.006	5.99
536.352	5.95
536.697	5.99
537.042	5.96
537.388	6.04
537.733	6.06
538.078	6.12
538.424	6.12
538.769	6.15
539.114	6.14
539.459	6.21
539.804	6.23
540.149	6.26
540.494	6.26
540.839	6.24
541.184	6.26
541.529	6.26
541.873	6.32
542.218	6.42
542.563	6.47
542.908	6.54
543.252	6.62
543.597	6.62
543.941	6.65
544.286	6.73
544.63	6.76
544.975	6.82
545.319	6.88
545.663	6.9
546.007	6.87
546.352	6.87
546.696	6.84
547.04	6.87
547.384	6.9
547.728	6.99
548.072	7.09
548.416	7.15
548.76	7.22
549.104	7.32
549.448	7.34
549.791	7.37
550.135	7.46
550.479	7.52
550.823	7.5
551.166	7.57
551.51	7.62
551.853	7.66
552.197	7.69
552.54	7.73
552.883	7.76
553.227	7.78
553.57	7.89
553.913	7.94
554.257	8.03
554.6	8.14
554.943	8.2
555.286	8.2
555.629	8.29
555.972	8.39
556.315	8.4
556.658	8.57
557.001	8.66
557.343	8.7
557.686	8.73
558.029	8.84
558.371	8.79
558.714	8.95
559.057	9.05
559.399	9.13
559.742	9.12
560.084	9.23
560.427	9.25
560.769	9.36
561.111	9.5
561.453	9.71
561.796	9.89
562.138	10.02
562.48	10.11
562.822	10.08
563.164	10.15
563.506	10.24
563.848	10.33
564.19	10.4
564.532	10.61
564.874	10.76
565.215	10.89
565.557	11.05
565.899	11.21
566.24	11.3
566.582	11.4
566.924	11.54
567.265	11.62
567.606	11.74
567.948	11.87
568.289	11.99
568.631	12.18
568.972	12.39
569.313	12.52
569.654	12.75
569.995	12.97
570.336	13.03
570.677	13.19
571.018	13.33
571.359	13.49
571.7	13.59
572.041	13.82
572.382	13.96
572.723	14.14
573.064	14.36
573.404	14.62
573.745	14.68
574.085	14.92
574.426	15.1
574.766	15.26
575.107	15.35
575.447	15.63
575.788	15.74
576.128	15.99
576.468	16.14
576.808	16.37
577.149	16.57
577.489	16.8
577.829	16.98
578.169	17.17
578.509	17.39
578.849	17.61
579.189	17.84
579.529	18.13
579.868	18.45
580.208	18.7
580.548	18.99
580.887	19.25
581.227	19.43
581.567	19.59
581.906	19.76
582.246	19.9
582.585	20.14
582.925	20.33
583.264	20.55
583.603	20.8
583.942	21.04
584.282	21.26
584.621	21.53
584.96	21.69
585.299	22
585.638	22.27
585.977	22.46
586.316	22.65
586.655	22.92
586.994	23.07
587.332	23.3
587.671	23.54
588.01	23.75
588.348	23.98
588.687	24.27
589.026	24.58
589.364	24.82
589.703	25.13
590.041	25.44
590.379	25.71
590.718	25.73
591.056	25.92
591.394	26.08
591.732	26.29
592.07	26.36
592.409	26.64
592.747	26.9
593.085	27.16
593.423	27.34
593.76	27.52
594.098	27.78
594.436	27.92
594.774	28.05
595.112	28.31
595.449	28.63
595.787	28.79
596.124	29.05
596.462	29.28
596.799	29.4
597.137	29.57
597.474	29.72
597.812	29.86
598.149	30.07
598.486	30.25
598.823	30.46
599.16	30.58
599.498	30.77
599.835	31.03
600.172	31.25
600.509	31.42
600.845	31.74
601.182	31.89
601.519	31.99
601.856	32.04
602.193	32.12
602.529	32.33
602.866	32.53
603.202	32.69
603.539	32.88
603.875	32.95
604.212	33.08
604.548	33.29
604.885	33.46
605.221	33.6
605.557	33.91
605.893	34.13
606.23	34.31
606.566	34.5
606.902	34.8
607.238	34.96
607.574	35.18
607.91	35.24
608.245	35.35
608.581	35.35
608.917	35.34
609.253	35.27
609.588	35.26
609.924	35.27
610.26	35.42
610.595	35.56
610.931	35.7
611.266	35.79
611.601	36.02
611.937	36.05
612.272	36.08
612.607	36.15
612.942	36.37
613.278	36.33
613.613	36.39
613.948	36.53
614.283	36.63
614.618	36.8
614.953	36.9
615.287	36.8
615.622	36.88
615.957	36.96
616.292	36.9
616.626	36.94
616.961	37.13
617.295	37.18
617.63	37.21
617.964	37.44
618.299	37.53
618.633	37.81
618.968	38.04
619.302	38.21
619.636	38.13
619.97	38.26
620.304	38.12
620.638	38.09
620.972	38.12
621.306	38.14
621.64	38.04
621.974	38.18
622.308	38.31
622.642	38.48
622.976	38.55
623.309	38.65
623.643	38.62
623.977	38.48
624.31	38.36
624.644	38.45
624.977	38.57
625.31	38.71
625.644	38.77
625.977	38.69
626.31	38.79
626.643	38.93
626.977	39.04
627.31	39.09
627.643	39.13
627.976	39.33
628.309	39.37
628.642	39.28
628.974	39.29
629.307	39.43
629.64	39.16
629.973	39.03
630.305	39.06
630.638	39.19
630.971	39.28
631.303	39.31
631.636	39.58
631.968	39.77
632.3	39.86
632.633	39.9
632.965	39.93
633.297	39.87
633.629	39.77
633.961	39.68
634.293	39.67
634.625	39.75
634.957	39.67
635.289	39.74
635.621	39.77
635.953	39.81
636.285	39.89
636.617	40.04
636.948	40.1
637.28	40.32
637.611	40.27
637.943	40.38
638.274	40.3
638.606	40.21
638.937	40.04
639.269	40.21
639.6	40.22
639.931	40.16
640.262	40.22
640.593	40.31
640.924	40.31
641.255	40.3
641.586	40.36
641.917	40.58
642.248	40.75
642.579	40.71
642.91	40.75
643.24	40.81
643.571	40.62
643.902	40.47
644.232	40.56
644.563	40.48
644.893	40.51
645.224	40.45
645.554	40.5
645.884	40.36
646.215	40.44
646.545	40.55
646.875	40.95
647.205	40.83
647.535	41
647.865	40.99
648.195	40.99
648.525	40.71
648.855	40.71
649.185	40.65
649.515	40.62
649.844	40.65
650.174	40.44
650.504	40.48
650.833	40.45
651.163	40.4
651.492	40.19
651.822	40.18
652.151	40.19
652.48	40.28
652.81	40.5
653.139	40.61
653.468	40.89
653.797	40.94
654.126	40.84
654.455	40.61
654.784	40.54
655.113	40.57
655.442	40.5
655.771	40.57
656.099	40.74
656.428	40.99
656.757	40.82
657.085	40.9
657.414	40.83
657.742	40.57
658.071	40.34
658.399	40.3
658.728	40.35
659.056	40.19
659.384	40.38
659.712	40.43
660.04	40.5
660.369	40.39
660.697	40.49
661.025	40.54
661.353	40.5
661.68	40.49
662.008	40.56
662.336	40.53
662.664	40.35
662.991	40.37
663.319	40.35
663.647	40.14
663.974	40.25
664.302	39.99
664.629	39.94
664.956	39.84
665.284	39.95
665.611	39.91
665.938	40.12
666.265	40.27
666.593	40.33
666.92	40.43
667.247	40.39
667.574	40.36
667.9	40.16
668.227	40.13
668.554	40.16
668.881	40.01
669.208	40.01
669.534	40.25
669.861	40.22
670.187	40.01
670.514	40.16
670.84	40.1
671.167	40.1
671.493	39.71
671.819	39.69
672.146	39.73
672.472	39.86
672.798	39.93
673.124	40.18
673.45	40.19
673.776	40.09
674.102	40.03
674.428	39.78
674.754	39.98
675.079	39.82
675.405	39.84
675.731	39.92
676.056	39.91
676.382	39.61
676.707	39.86
677.033	39.73
677.358	39.58
677.684	39.46
678.009	39.59
678.334	39.52
678.659	39.5
678.985	39.36
679.31	39.44
679.635	39.42
679.96	39.47
680.285	39.62
680.609	40.1
680.934	40.09
681.259	40.36
681.584	40.42
681.908	40.5
682.233	40.35
682.558	40.38
682.882	40.22
683.207	40.32
683.531	40.4
683.855	40.23
684.18	40.47
684.504	40.53
684.828	40.56
685.152	40.42
685.476	40.67
685.8	40.44
686.124	40.44
686.448	40.18
686.772	40.37
687.096	40.36
687.42	40.17
687.744	40.07
688.067	40.27
688.391	39.95
688.714	39.67
689.038	40.11
689.361	40.39
689.685	40.32
690.008	40.96
690.331	41.32
690.655	41.27
690.978	41.49
691.301	41.64
691.624	41.2
691.947	41.27
692.27	41.37
692.593	41.13
692.916	41.14
693.239	41.5
693.561	41.21
693.884	40.81
694.207	40.92
694.529	40.81
694.852	40.4
695.174	40.47
695.497	40.61
695.819	40.38
696.142	40.83
696.464	41.07
696.786	40.84
697.108	40.97
697.43	40.94
697.753	40.75
698.075	40.71
698.397	40.79
698.718	41.02
699.04	41.31
699.362	41.39
699.684	41.41
700.006	41.56
700.327	41.65
700.649	41.52
700.97	41.55
701.292	42.02
701.613	42.31
701.935	41.92
702.256	41.8
702.577	41.55
702.898	41.06
703.22	40.68
703.541	40.75
703.862	40.73
704.183	40.94
704.504	40.84
704.825	41.22
705.145	41.31
705.466	41.45
705.787	41.53
706.108	41.84
706.428	41.79
706.749	41.84
707.069	41.82
707.39	41.94
707.71	41.69
708.03	41.46
708.351	41.24
708.671	41.01
708.991	40.79
709.311	40.73
709.631	40.85
709.951	41.46
710.271	41.97
710.591	41.97
710.911	42.26
711.231	42.32
711.551	42.05
711.87	41.85
712.19	42.06
712.51	41.96
712.829	42.08
713.149	41.83
713.468	41.79
713.787	41.75
714.107	41.69
714.426	41.79
714.745	42.05
715.064	42.12
715.383	41.82
715.702	41.55
716.021	41.27
716.34	40.96
716.659	40.74
716.978	40.77
717.297	41.68
717.615	41.8
717.934	41.81
718.253	41.84
718.571	41.93
718.89	41.34
719.208	40.96
719.527	40.84
719.845	40.85
720.163	41.1
720.481	40.6
720.8	41.06
721.118	41.44
721.436	41.62
721.754	40.96
722.072	41.07
722.39	40.88
722.707	40.69
723.025	40.75
723.343	41.16
723.661	41.08
723.978	41.38
724.296	41.63
724.613	41.5
724.931	41.14
725.248	41.63
725.565	41.19
725.883	41.13
726.2	41.06
726.517	41.01
726.834	40.95
727.151	41.5
727.468	41.51
727.785	41.87
728.102	42.09
728.419	41.98
728.736	41.48
729.052	41.43
729.369	41.08
729.686	41.36
730.002	41.35
730.319	41.56
730.635	41.6
730.951	41.44
731.268	41.32
731.584	41.35
731.9	41.14
732.216	41.1
732.533	41.31
732.849	40.81
733.165	41.24
733.481	41.63
733.796	41.28
734.112	41.14
734.428	41.77
734.744	41.66
735.059	41.25
735.375	42.02
735.691	42.5
736.006	42.13
736.322	41.81
736.637	42.1
736.952	41.96
737.268	41.5
737.583	41.97
737.898	41.89
738.213	41.82
738.528	41.14
738.843	41.38
739.158	40.87
739.473	40.73
739.788	41
740.102	41.59
740.417	41.39
740.732	41.61
741.046	41.81
741.361	40.91
741.675	40.82
741.99	40.62
742.304	40.74
742.618	40.76
742.933	41.48
743.247	40.97
743.561	41.51
743.875	41.17
744.189	40.96
744.503	40.19
744.817	40.61
745.131	40.36
745.445	40.7
745.758	41.55
746.072	42.22
746.386	41.68
746.699	41.81
747.013	41.94
747.326	41.38
747.64	41.41
747.953	41.45
748.266	40.85
748.58	40.98
748.893	40.82
749.206	40.93
749.519	41.37
749.832	42.2
750.145	41.62
750.458	41.19
750.771	40.87
751.083	40.69
751.396	39.7
751.709	40.26
752.021	40.58
752.334	40.71
752.646	40.7
752.959	40.72
753.271	40.98
753.584	41.2
753.896	40.73
754.208	40.62
754.52	41.23
754.832	40.71
755.144	40.19
755.456	41.23
755.768	41.87
756.08	42.13
756.392	41.82
756.704	41.8
757.015	40.87
757.327	40.91
757.638	40.58
757.95	41.09
758.261	41.12
758.573	41.61
758.884	41.49
759.195	41.88
759.507	41.34
759.818	41.98
760.129	41.85
760.44	41.74
760.751	40.91
761.062	41.73
761.373	41.38
761.684	41.26
761.994	40.9
762.305	41.57
762.616	41.13
762.926	41.22
763.237	41.27
763.547	41.74
763.858	41.21
764.168	41.08
764.478	41.2
764.789	41.35
765.099	41.02
765.409	41.66
765.719	41.61
766.029	41.03
766.339	40.8
766.649	40.66
766.959	40.11
767.269	40.01
767.578	40.75
767.888	41.1
768.198	40.81
768.507	40.99
768.817	41.38
769.126	41.76
769.435	41.71
769.745	41.87
770.054	41.85
770.363	42.69
770.672	42.4
770.981	42.02
771.29	42.31
771.599	42.33
771.908	41.05
772.217	40.65
772.526	41.01
772.835	40.83
773.143	40.61
773.452	40.51
773.76	40.17
774.069	40.47
774.377	40.34
774.686	40.65
774.994	40.78
775.302	41.99
775.611	41.54
775.919	41.92
776.227	41.52
776.535	40.63
776.843	39.87
777.151	39.07
777.459	39.67
777.766	39.69
778.074	40.33
778.382	40.11
778.689	39.64
778.997	39.86
779.304	40.05
779.612	41.28
779.919	41.1
780.227	41.17
780.534	40.09
780.841	40.66
781.148	39.26
781.455	39.26
781.762	40.47
782.069	40.85
782.376	40.47
782.683	41.5
782.99	42.14
783.296	42.79
783.603	42.56
783.91	40.7
784.216	40.6
784.523	40.46
784.829	39.58
785.136	40.2
785.442	43.34
785.748	43.76
786.054	44.14
786.36	43.18
786.667	42.98
786.973	41.66
787.278	40.74
787.584	39.85
787.89	40.14
788.196	38.99
788.502	38.9
788.807	39.39
789.113	38.78
789.418	38.64
789.724	39.31
790.029	38.65
790.335	37.85
790.64	38.1
790.945	37.99
791.25	37.08
791.556	38.48
791.861	39.62
792.166	41.51
792.471	41.38
792.775	42.78
793.08	42.38
793.385	41.21
793.69	40.45
793.994	42.09
794.299	40.96
794.603	40.71
794.908	42.15
795.212	41.08
795.517	40.72
795.821	41.56
796.125	39.77
796.429	38.72
796.733	39.5
797.037	38.87
797.341	40.31
797.645	42.13
797.949	42.82
798.253	42.02
798.557	42.53
798.86	40.29
799.164	40.91
799.468	39.98
799.771	38.95
800.074	38.36
800.378	39.84
800.681	37.74
800.984	39.78
801.288	42.39
801.591	42.82
801.894	43.18
802.197	43.95
802.5	43.4
802.803	42.75
803.105	43.34
803.408	43.07
803.711	43.55
804.014	41.91
804.316	41.53
804.619	40.66
804.921	42.17
805.224	42.24
805.526	43.8
805.828	43.81
806.13	44.65
806.433	43.14
806.735	42.66
807.037	41.26
807.339	40.38
807.641	40.21
807.942	40.17
808.244	39.78
808.546	39.72
808.848	40.54
809.149	39.23
809.451	39.49
809.752	38.8
810.054	40.71
810.355	40.27
810.656	41.14
810.958	40.07
811.259	41.67
811.56	40.6
811.861	42.06
812.162	43.61
812.463	43.48
812.764	43.76
813.065	41.34
813.365	38
813.666	37.2
813.967	36.96
814.267	35.32
814.568	36.84
814.868	38.74
815.169	37.64
815.469	37.64
815.769	38.51
816.069	38.95
816.37	39.9
816.67	38.45
816.97	39.23
817.27	40.18
817.57	40.32
817.869	39.01
818.169	41.59
818.469	40.18
818.768	40.42
819.068	40.4
819.368	41.44
819.667	41.71
819.966	43.4
820.266	43.1
820.565	42.87
820.864	43.28
821.163	41.93
821.463	41.13
821.762	41.79
822.06	42.17
822.359	42.05
822.658	42.19
822.957	41.96
823.256	41.54
823.554	41.45
823.853	41.47
824.152	41.39
824.45	41.76
824.748	41.79
825.047	42.09
825.345	42.15
825.643	42.5
825.941	42.6
826.239	42.4
826.538	42.45
826.836	41.98
827.133	41.72
827.431	41.19
827.729	41.26
828.027	41.21
828.324	41.45
828.622	42.2
828.92	42.23
829.217	42.27
829.514	42.1
829.812	42.62
830.109	42.25
830.406	42.22
830.703	44.37
831.001	43.74
831.298	42.34
831.595	41.97
831.891	42.22
832.188	38.85
832.485	39.45
832.782	40.51
833.078	40.81
833.375	40.44
833.672	39.58
833.968	39.25
834.264	37.88
834.561	39.85
834.857	40.04
835.153	40.4
835.449	41.39
835.746	42.5
836.042	41.58
836.338	42.49
836.633	42.72
836.929	42.54
837.225	40.7
837.521	39.99
837.816	36.09
838.112	37.21
838.408	35.25
838.703	38.28
838.998	35
839.294	39.51
839.589	38.24
839.884	35.52
840.179	36.07
840.474	42.03
840.77	34.59
841.064	37.75
841.359	40.61
841.654	39.75
841.949	36.15
842.244	39.82
842.538	35.72
842.833	35.17
843.127	33.48
843.422	34.77
843.716	39.23
844.011	46.7
844.305	46.47
844.599	53.74
844.893	56.66
845.187	57.16
845.481	48.37
845.775	56.15
846.069	45.92
846.363	41.98
846.657	38.16
846.95	41.56
847.244	33.94
847.537	37.81
847.831	37.97
848.124	36.39
848.418	35.83
848.711	37.8
849.004	36.39
849.297	36.03
849.591	34.08
849.884	32.46
850.177	36.86
850.47	26.24
850.762	24.14
851.055	28.58
851.348	37.08
851.641	29.2
851.933	33.93
852.226	29.09
852.518	35.06
852.811	31.51
853.103	29.63
853.395	26.85
853.687	26.24
853.98	18.05
854.272	17.77
854.564	13.14
854.856	27.63
855.148	29.24
855.439	33.29
855.731	33.14
856.023	42.86
856.314	42.8
856.606	56.1
856.898	43.98
857.189	42.88
857.48	40.38
857.772	32.93
858.063	20.94
858.354	32.46
858.645	28.9
858.936	15.54
859.227	25.03
859.518	21.28
859.809	-23.05
860.1	4.72
860.391	26.64
860.681	21.32
860.972	32.56
861.262	43.16
861.553	22.07
861.843	22.1
862.134	16.75
862.424	25.17
862.714	32.44
863.004	48.88
863.294	55.84
863.584	75.02
863.874	66.51
864.164	62.95
864.454	50.47
864.744	52.16
865.034	26.97
865.323	28.8
865.613	35.92
865.902	54.41
866.192	28.58
866.481	28.43
866.77	10.6
867.06	12.86
867.349	11.47
867.638	22.04
867.927	41.45
868.216	58.32
868.505	54.25
868.794	37.13
869.082	37.35
869.371	23.56
869.66	22.55
869.948	23.85
870.237	51.76
870.525	51.68
870.814	44.33
871.102	21.77
871.39	19.08
871.678	10.46
871.967	6.57
872.255	14.55
872.543	-5.04
872.831	-28.43
873.118	-19.04
873.406	-29.74
873.694	-72.66
873.982	-30.83
874.269	57.42
874.557	75.72
874.844	86.9
875.132	86.56
875.419	95.02
