Data from Hd-i3_Reflection_15-43-48-406.txt Node
Date: Tue Aug 16 15:43:48 CEST 2022
User: IDIV
Spectrometer: FLMS14958
Trigger mode: 0
Integration Time (sec): 1.000000E-1
Scans to average: 10
Electric dark correction enabled: true
Nonlinearity correction enabled: true
Boxcar width: 2
XAxis mode: Wavelengths
Number of Pixels in Spectrum: 2048
>>>>>Begin Spectral Data<<<<<
179.491	411.29
179.869	1490.45
180.247	7037.28
180.625	-304.17
181.003	-208.18
181.381	109.46
181.759	-3553.12
182.136	-116.39
182.514	-38.22
182.892	27.11
183.27	43.23
183.647	92.27
184.025	149.27
184.403	1.94
184.78	64.76
185.158	-61.04
185.536	-1006.98
185.913	-67.97
186.291	-32.49
186.668	11.68
187.046	51.83
187.423	78.79
187.801	49.07
188.178	33.68
188.556	36.2
188.933	22.16
189.31	22.62
189.688	25.07
190.065	29.93
190.442	24.21
190.82	35.63
191.197	30.4
191.574	22.19
191.951	17.56
192.329	20.67
192.706	15.9
193.083	12.8
193.46	11.3
193.837	18.58
194.214	11.2
194.591	13.85
194.968	18.19
195.345	21.76
195.722	22.29
196.099	25.05
196.476	25.67
196.853	22.59
197.23	28.53
197.607	24.88
197.984	25.96
198.36	18.39
198.737	15.98
199.114	3.68
199.491	4.37
199.867	6.5
200.244	9.68
200.621	17.18
200.997	19.81
201.374	12.59
201.75	6.83
202.127	4.6
202.504	-1.15
202.88	2.39
203.257	3.55
203.633	8.81
204.01	13.93
204.386	11.49
204.762	7.24
205.139	17.02
205.515	14.51
205.891	10.93
206.268	2.07
206.644	2.13
207.02	-1.46
207.396	-0.28
207.773	5.72
208.149	20.6
208.525	24.86
208.901	22.24
209.277	20.85
209.653	16.51
210.029	9.48
210.405	11.5
210.781	10.96
211.157	9.22
211.533	11.75
211.909	17.88
212.285	11.1
212.661	3.72
213.037	13.22
213.413	5.62
213.789	-0.31
214.164	2.43
214.54	6.94
214.916	-0.87
215.292	5.39
215.667	7.95
216.043	11.2
216.419	15.08
216.794	18.54
217.17	17.55
217.545	19.13
217.921	17.29
218.296	19.34
218.672	13.75
219.047	6.67
219.423	11.79
219.798	8.55
220.174	11.08
220.549	10.49
220.924	13.96
221.3	8.1
221.675	15.45
222.05	8.32
222.425	10.62
222.801	14.96
223.176	12.15
223.551	9.05
223.926	11.41
224.301	5.92
224.676	5.7
225.051	5.15
225.426	3.95
225.801	0.58
226.176	4.73
226.551	-1.05
226.926	0.46
227.301	1.75
227.676	2.26
228.051	-0.23
228.426	1.18
228.801	0.57
229.175	-0.07
229.55	0.25
229.925	1.13
230.3	0.91
230.674	0.79
231.049	1.12
231.424	1.5
231.798	2.39
232.173	2.33
232.547	2.31
232.922	1.44
233.296	1.31
233.671	0.8
234.045	0.71
234.42	1.18
234.794	0.8
235.168	1.79
235.543	1.39
235.917	2.28
236.291	2.05
236.666	2.75
237.04	1.55
237.414	1.29
237.788	0.91
238.162	0.73
238.537	0.62
238.911	0.52
239.285	0.58
239.659	0.85
240.033	0.57
240.407	0.73
240.781	0.36
241.155	0.5
241.529	0.44
241.903	0.37
242.277	0.23
242.65	0.32
243.024	-0.02
243.398	-0.15
243.772	0.1
244.146	0.27
244.519	0.25
244.893	0.72
245.267	1.13
245.64	1.28
246.014	1.04
246.387	0.82
246.761	0.61
247.135	0.52
247.508	0.45
247.882	0.36
248.255	0.39
248.628	0.34
249.002	0.24
249.375	0.24
249.749	0.44
250.122	0.65
250.495	0.92
250.868	1.15
251.242	0.99
251.615	0.71
251.988	0.52
252.361	0.36
252.734	0.13
253.107	0.27
253.481	0.31
253.854	0.34
254.227	0.05
254.6	0.03
254.973	0.14
255.346	0.27
255.718	0.17
256.091	0.27
256.464	0.49
256.837	0.33
257.21	0.39
257.583	0.1
257.955	0.03
258.328	0.02
258.701	0.06
259.074	0.21
259.446	0.4
259.819	0.59
260.191	0.48
260.564	0.42
260.936	0.35
261.309	0.37
261.681	0.2
262.054	0.27
262.426	0.21
262.799	0.19
263.171	0.09
263.543	0.35
263.916	0.23
264.288	0.39
264.66	0.45
265.033	0.19
265.405	0.13
265.777	0.09
266.149	-0.04
266.521	-0.13
266.893	0.18
267.265	0.19
267.637	0.37
268.009	0.41
268.381	0.46
268.753	0.33
269.125	0.56
269.497	0.52
269.869	0.42
270.241	0.35
270.613	0.59
270.985	0.31
271.356	0.3
271.728	0.37
272.1	0.46
272.471	0.2
272.843	0.24
273.215	0.28
273.586	0.25
273.958	0.16
274.329	0.18
274.701	0.15
275.072	0.01
275.444	0.21
275.815	0.48
276.187	0.85
276.558	1.09
276.929	1.17
277.301	1.28
277.672	1.06
278.043	0.85
278.415	0.53
278.786	0.44
279.157	0.06
279.528	0.16
279.899	0.17
280.27	-0
280.641	0.17
281.012	0.38
281.383	0.27
281.754	0.34
282.125	0.54
282.496	0.33
282.867	0.16
283.238	0.09
283.609	-0.05
283.98	-0.19
284.35	-0.07
284.721	0.15
285.092	0.21
285.462	0.33
285.833	0.42
286.204	0.58
286.574	0.52
286.945	0.55
287.315	0.5
287.686	0.55
288.056	0.41
288.427	0.41
288.797	0.42
289.168	0.58
289.538	0.62
289.908	0.53
290.279	0.55
290.649	0.45
291.019	0.28
291.39	0.17
291.76	0.28
292.13	0.2
292.5	0.29
292.87	0.47
293.24	0.53
293.61	0.45
293.98	0.43
294.35	0.44
294.72	0.37
295.09	0.26
295.46	0.26
295.83	0.39
296.2	0.46
296.57	0.32
296.939	0.41
297.309	0.41
297.679	0.25
298.049	0.22
298.418	0.34
298.788	0.4
299.158	0.64
299.527	0.82
299.897	0.8
300.266	0.63
300.636	0.65
301.005	0.29
301.375	0.19
301.744	0.22
302.113	0.31
302.483	0.33
302.852	0.55
303.221	0.58
303.591	0.59
303.96	0.44
304.329	0.43
304.698	0.31
305.067	0.3
305.436	0.16
305.806	0.44
306.175	0.36
306.544	0.54
306.913	0.5
307.282	0.67
307.65	0.66
308.019	0.8
308.388	0.71
308.757	0.71
309.126	0.63
309.495	0.68
309.863	0.55
310.232	0.53
310.601	0.59
310.969	0.68
311.338	0.44
311.707	0.47
312.075	0.57
312.444	0.52
312.812	0.52
313.181	0.75
313.549	0.7
313.918	0.48
314.286	0.42
314.654	0.35
315.023	0.3
315.391	0.57
315.759	0.65
316.127	0.7
316.496	0.78
316.864	0.73
317.232	0.54
317.6	0.51
317.968	0.51
318.336	0.46
318.704	0.49
319.072	0.42
319.44	0.47
319.808	0.61
320.176	0.68
320.544	0.75
320.912	0.76
321.28	0.61
321.647	0.38
322.015	0.43
322.383	0.4
322.75	0.49
323.118	0.46
323.486	0.61
323.853	0.49
324.221	0.52
324.588	0.53
324.956	0.73
325.323	0.62
325.691	0.63
326.058	0.53
326.426	0.41
326.793	0.37
327.16	0.47
327.528	0.41
327.895	0.51
328.262	0.68
328.629	0.6
328.996	0.68
329.363	0.78
329.731	0.7
330.098	0.6
330.465	0.76
330.832	0.73
331.199	0.85
331.566	0.67
331.932	0.61
332.299	0.52
332.666	0.69
333.033	0.42
333.4	0.51
333.766	0.63
334.133	0.61
334.5	0.46
334.867	0.51
335.233	0.66
335.6	0.58
335.966	0.44
336.333	0.49
336.699	0.69
337.066	0.69
337.432	0.79
337.799	1.03
338.165	0.89
338.531	0.79
338.898	0.6
339.264	0.55
339.63	0.46
339.996	0.61
340.363	0.54
340.729	0.67
341.095	0.77
341.461	0.81
341.827	0.67
342.193	0.71
342.559	0.61
342.925	0.59
343.291	0.54
343.657	0.62
344.023	0.73
344.388	0.79
344.754	0.72
345.12	0.72
345.486	0.49
345.851	0.33
346.217	0.39
346.583	0.29
346.948	0.28
347.314	0.45
347.679	0.54
348.045	0.45
348.41	0.47
348.776	0.43
349.141	0.29
349.507	0.31
349.872	0.1
350.237	0.37
350.603	0.5
350.968	0.7
351.333	0.52
351.698	0.92
352.063	0.73
352.428	0.73
352.794	0.61
353.159	0.68
353.524	0.45
353.889	0.56
354.254	0.47
354.618	0.53
354.983	0.7
355.348	0.59
355.713	0.45
356.078	0.42
356.443	0.42
356.807	0.33
357.172	0.45
357.537	0.52
357.901	0.49
358.266	0.59
358.63	0.59
358.995	0.48
359.359	0.43
359.724	0.53
360.088	0.44
360.453	0.23
360.817	0.41
361.181	0.4
361.546	0.28
361.91	0.31
362.274	0.41
362.638	0.44
363.003	0.4
363.367	0.38
363.731	0.42
364.095	0.39
364.459	0.39
364.823	0.36
365.187	0.48
365.551	0.39
365.915	0.45
366.279	0.49
366.642	0.59
367.006	0.63
367.37	0.7
367.734	0.65
368.097	0.57
368.461	0.51
368.825	0.63
369.188	0.55
369.552	0.57
369.915	0.5
370.279	0.82
370.642	0.81
371.006	0.86
371.369	0.95
371.732	0.98
372.096	0.95
372.459	1.08
372.822	0.97
373.186	1.06
373.549	1.22
373.912	1.12
374.275	1
374.638	1.13
375.001	1.21
375.364	1.2
375.727	1.29
376.09	1.24
376.453	1.29
376.816	1.23
377.179	1.27
377.542	1.14
377.904	1.15
378.267	1.21
378.63	1.4
378.993	1.43
379.355	1.62
379.718	1.75
380.08	1.63
380.443	1.54
380.806	1.62
381.168	1.6
381.53	1.61
381.893	1.78
382.255	1.9
382.618	1.9
382.98	1.91
383.342	1.94
383.704	1.9
384.067	1.84
384.429	1.74
384.791	1.77
385.153	1.87
385.515	2.01
385.877	2.07
386.239	2.18
386.601	2.27
386.963	2.27
387.325	2.29
387.687	2.32
388.049	2.36
388.41	2.33
388.772	2.33
389.134	2.29
389.496	2.23
389.857	2.34
390.219	2.42
390.58	2.38
390.942	2.4
391.303	2.56
391.665	2.39
392.026	2.35
392.388	2.45
392.749	2.46
393.111	2.38
393.472	2.51
393.833	2.52
394.194	2.47
394.556	2.49
394.917	2.45
395.278	2.41
395.639	2.32
396	2.33
396.361	2.34
396.722	2.44
397.083	2.43
397.444	2.57
397.805	2.61
398.166	2.65
398.526	2.54
398.887	2.56
399.248	2.46
399.609	2.48
399.969	2.45
400.33	2.57
400.691	2.51
401.051	2.62
401.412	2.67
401.772	2.62
402.133	2.52
402.493	2.63
402.853	2.53
403.214	2.41
403.574	2.36
403.934	2.36
404.295	2.32
404.655	2.32
405.015	2.37
405.375	2.42
405.735	2.37
406.095	2.23
406.455	2.18
406.815	2.1
407.175	2.06
407.535	2.06
407.895	2.3
408.255	2.35
408.615	2.31
408.975	2.28
409.334	2.27
409.694	2.07
410.054	2.03
410.413	2.12
410.773	2.2
411.133	2.24
411.492	2.33
411.852	2.35
412.211	2.3
412.571	2.2
412.93	2.07
413.289	2.03
413.649	2
414.008	2
414.367	1.99
414.726	2.03
415.086	1.95
415.445	1.86
415.804	1.79
416.163	1.86
416.522	1.88
416.881	1.94
417.24	2.04
417.599	2.07
417.958	1.99
418.316	1.99
418.675	1.95
419.034	1.88
419.393	1.86
419.751	1.89
420.11	1.88
420.469	1.88
420.827	1.89
421.186	1.89
421.544	1.84
421.903	1.87
422.261	1.86
422.62	1.85
422.978	1.84
423.336	1.86
423.695	1.83
424.053	1.86
424.411	1.83
424.769	1.85
425.128	1.82
425.486	1.78
425.844	1.71
426.202	1.72
426.56	1.7
426.918	1.75
427.276	1.83
427.634	1.89
427.991	1.91
428.349	1.93
428.707	1.88
429.065	1.85
429.423	1.86
429.78	1.91
430.138	1.91
430.495	1.94
430.853	1.92
431.211	1.98
431.568	1.96
431.925	1.97
432.283	1.98
432.64	1.93
432.998	1.88
433.355	1.84
433.712	1.77
434.069	1.68
434.427	1.7
434.784	1.74
435.141	1.72
435.498	1.76
435.855	1.82
436.212	1.83
436.569	1.77
436.926	1.78
437.283	1.69
437.64	1.71
437.996	1.72
438.353	1.68
438.71	1.65
439.067	1.72
439.423	1.66
439.78	1.63
440.137	1.61
440.493	1.65
440.85	1.65
441.206	1.69
441.563	1.73
441.919	1.81
442.275	1.79
442.632	1.81
442.988	1.84
443.344	1.8
443.7	1.81
444.057	1.89
444.413	1.87
444.769	1.87
445.125	1.84
445.481	1.85
445.837	1.88
446.193	1.89
446.549	1.86
446.905	1.95
447.26	1.99
447.616	2
447.972	2.04
448.328	2.07
448.683	2.07
449.039	2.08
449.395	2.03
449.75	2.08
450.106	2.14
450.461	2.19
450.817	2.22
451.172	2.32
451.527	2.31
451.883	2.34
452.238	2.3
452.593	2.26
452.949	2.19
453.304	2.19
453.659	2.23
454.014	2.3
454.369	2.34
454.724	2.43
455.079	2.46
455.434	2.42
455.789	2.4
456.144	2.34
456.499	2.33
456.853	2.34
457.208	2.4
457.563	2.44
457.918	2.51
458.272	2.47
458.627	2.47
458.981	2.43
459.336	2.37
459.69	2.39
460.045	2.38
460.399	2.4
460.754	2.42
461.108	2.47
461.462	2.5
461.817	2.57
462.171	2.59
462.525	2.61
462.879	2.61
463.233	2.51
463.587	2.45
463.941	2.45
464.295	2.47
464.649	2.48
465.003	2.55
465.357	2.56
465.711	2.43
466.065	2.41
466.418	2.41
466.772	2.34
467.126	2.35
467.479	2.39
467.833	2.39
468.186	2.4
468.54	2.45
468.893	2.51
469.247	2.58
469.6	2.6
469.954	2.55
470.307	2.53
470.66	2.5
471.013	2.45
471.367	2.45
471.72	2.47
472.073	2.45
472.426	2.44
472.779	2.49
473.132	2.46
473.485	2.46
473.838	2.5
474.191	2.46
474.544	2.41
474.896	2.39
475.249	2.37
475.602	2.36
475.955	2.34
476.307	2.36
476.66	2.34
477.012	2.35
477.365	2.34
477.717	2.38
478.07	2.38
478.422	2.4
478.775	2.41
479.127	2.43
479.479	2.44
479.831	2.42
480.184	2.41
480.536	2.46
480.888	2.51
481.24	2.52
481.592	2.49
481.944	2.49
482.296	2.42
482.648	2.42
483	2.37
483.352	2.33
483.703	2.35
484.055	2.36
484.407	2.35
484.759	2.38
485.11	2.42
485.462	2.43
485.813	2.43
486.165	2.42
486.516	2.42
486.868	2.42
487.219	2.41
487.571	2.41
487.922	2.43
488.273	2.43
488.624	2.45
488.976	2.47
489.327	2.51
489.678	2.53
490.029	2.56
490.38	2.58
490.731	2.63
491.082	2.61
491.433	2.64
491.784	2.66
492.135	2.69
492.485	2.7
492.836	2.74
493.187	2.76
493.537	2.78
493.888	2.81
494.239	2.9
494.589	2.92
494.94	2.96
495.29	2.99
495.641	3.04
495.991	3.03
496.341	3.09
496.692	3.15
497.042	3.18
497.392	3.15
497.742	3.16
498.092	3.19
498.442	3.21
498.793	3.28
499.143	3.38
499.493	3.47
499.842	3.49
500.192	3.54
500.542	3.56
500.892	3.62
501.242	3.6
501.591	3.67
501.941	3.72
502.291	3.77
502.64	3.79
502.99	3.81
503.339	3.83
503.689	3.9
504.038	3.98
504.388	4.08
504.737	4.25
505.086	4.36
505.436	4.35
505.785	4.39
506.134	4.42
506.483	4.43
506.832	4.48
507.181	4.62
507.53	4.66
507.879	4.66
508.228	4.68
508.577	4.74
508.926	4.75
509.275	4.83
509.624	4.9
509.972	4.99
510.321	5.03
510.67	5.07
511.018	5.13
511.367	5.21
511.715	5.27
512.064	5.36
512.412	5.45
512.761	5.55
513.109	5.6
513.457	5.67
513.806	5.65
514.154	5.73
514.502	5.7
514.85	5.8
515.198	5.81
515.546	5.9
515.894	5.92
516.242	6.06
516.59	6.09
516.938	6.19
517.286	6.27
517.634	6.31
517.981	6.31
518.329	6.39
518.677	6.42
519.024	6.49
519.372	6.53
519.72	6.59
520.067	6.61
520.415	6.69
520.762	6.77
521.109	6.92
521.457	7
521.804	7.04
522.151	7.11
522.498	7.11
522.846	7.11
523.193	7.16
523.54	7.2
523.887	7.23
524.234	7.25
524.581	7.23
524.928	7.23
525.275	7.28
525.621	7.29
525.968	7.31
526.315	7.37
526.662	7.39
527.008	7.46
527.355	7.49
527.701	7.53
528.048	7.58
528.394	7.6
528.741	7.6
529.087	7.65
529.434	7.69
529.78	7.72
530.126	7.79
530.472	7.84
530.819	7.89
531.165	7.91
531.511	7.97
531.857	8.01
532.203	8.04
532.549	8
532.895	8.03
533.241	8.02
533.586	8.06
533.932	8.09
534.278	8.17
534.624	8.21
534.969	8.27
535.315	8.28
535.661	8.28
536.006	8.27
536.352	8.29
536.697	8.28
537.042	8.29
537.388	8.35
537.733	8.44
538.078	8.47
538.424	8.49
538.769	8.5
539.114	8.52
539.459	8.46
539.804	8.49
540.149	8.55
540.494	8.58
540.839	8.53
541.184	8.56
541.529	8.58
541.873	8.64
542.218	8.69
542.563	8.76
542.908	8.85
543.252	8.88
543.597	8.89
543.941	8.95
544.286	9.01
544.63	9.01
544.975	9.07
545.319	9.09
545.663	9.09
546.007	9.09
546.352	9.07
546.696	9.07
547.04	9.09
547.384	9.11
547.728	9.11
548.072	9.18
548.416	9.18
548.76	9.23
549.104	9.28
549.448	9.32
549.791	9.34
550.135	9.43
550.479	9.46
550.823	9.43
551.166	9.53
551.51	9.55
551.853	9.49
552.197	9.5
552.54	9.49
552.883	9.49
553.227	9.56
553.57	9.69
553.913	9.7
554.257	9.78
554.6	9.77
554.943	9.77
555.286	9.75
555.629	9.8
555.972	9.8
556.315	9.83
556.658	9.79
557.001	9.81
557.343	9.82
557.686	9.92
558.029	9.97
558.371	9.98
558.714	10.01
559.057	10
559.399	10
559.742	10.04
560.084	10.1
560.427	10.16
560.769	10.22
561.111	10.28
561.453	10.3
561.796	10.31
562.138	10.3
562.48	10.25
562.822	10.18
563.164	10.18
563.506	10.14
563.848	10.08
564.19	10.13
564.532	10.17
564.874	10.21
565.215	10.28
565.557	10.36
565.899	10.34
566.24	10.3
566.582	10.27
566.924	10.3
567.265	10.25
567.606	10.35
567.948	10.46
568.289	10.47
568.631	10.53
568.972	10.61
569.313	10.57
569.654	10.53
569.995	10.53
570.336	10.44
570.677	10.4
571.018	10.38
571.359	10.37
571.7	10.42
572.041	10.4
572.382	10.4
572.723	10.4
573.064	10.35
573.404	10.31
573.745	10.32
574.085	10.41
574.426	10.48
574.766	10.54
575.107	10.56
575.447	10.6
575.788	10.5
576.128	10.4
576.468	10.44
576.808	10.49
577.149	10.42
577.489	10.44
577.829	10.53
578.169	10.57
578.509	10.58
578.849	10.67
579.189	10.72
579.529	10.66
579.868	10.59
580.208	10.54
580.548	10.58
580.887	10.66
581.227	10.77
581.567	10.77
581.906	10.79
582.246	10.84
582.585	10.79
582.925	10.72
583.264	10.66
583.603	10.72
583.942	10.67
584.282	10.63
584.621	10.66
584.96	10.74
585.299	10.72
585.638	10.69
585.977	10.76
586.316	10.72
586.655	10.65
586.994	10.56
587.332	10.6
587.671	10.59
588.01	10.6
588.348	10.72
588.687	10.84
589.026	10.87
589.364	10.79
589.703	10.84
590.041	10.69
590.379	10.63
590.718	10.56
591.056	10.57
591.394	10.54
591.732	10.59
592.07	10.65
592.409	10.62
592.747	10.71
593.085	10.73
593.423	10.79
593.76	10.8
594.098	10.86
594.436	10.86
594.774	10.86
595.112	10.88
595.449	10.83
595.787	10.79
596.124	10.74
596.462	10.77
596.799	10.78
597.137	10.75
597.474	10.84
597.812	10.89
598.149	10.89
598.486	10.89
598.823	10.99
599.16	10.94
599.498	10.88
599.835	10.83
600.172	10.84
600.509	10.83
600.845	10.79
601.182	10.86
601.519	10.93
601.856	10.9
602.193	10.91
602.529	10.99
602.866	10.95
603.202	10.98
603.539	11.04
603.875	10.96
604.212	10.93
604.548	10.93
604.885	10.87
605.221	10.82
605.557	10.8
605.893	10.77
606.23	10.81
606.566	10.85
606.902	10.84
607.238	10.98
607.574	11
607.91	10.94
608.245	10.88
608.581	10.8
608.917	10.63
609.253	10.63
609.588	10.66
609.924	10.79
610.26	10.91
610.595	11
610.931	11.02
611.266	11.07
611.601	10.98
611.937	10.91
612.272	10.92
612.607	10.89
612.942	10.82
613.278	10.71
613.613	10.73
613.948	10.71
614.283	10.78
614.618	10.77
614.953	10.95
615.287	10.88
615.622	10.74
615.957	10.66
616.292	10.68
616.626	10.4
616.961	10.44
617.295	10.62
617.63	10.56
617.964	10.39
618.299	10.54
618.633	10.41
618.968	10.3
619.302	10.29
619.636	10.38
619.97	10.31
620.304	10.44
620.638	10.51
620.972	10.49
621.306	10.38
621.64	10.42
621.974	10.24
622.308	10.08
622.642	10.13
622.976	10.17
623.309	10.16
623.643	10.22
623.977	10.33
624.31	10.2
624.644	10.19
624.977	10.17
625.31	10.19
625.644	10.12
625.977	10.21
626.31	10.24
626.643	10.16
626.977	10.13
627.31	10.12
627.643	10.12
627.976	10.16
628.309	10.29
628.642	10.32
628.974	10.35
629.307	10.39
629.64	10.38
629.973	10.39
630.305	10.36
630.638	10.35
630.971	10.34
631.303	10.32
631.636	10.25
631.968	10.38
632.3	10.35
632.633	10.26
632.965	10.28
633.297	10.28
633.629	10.2
633.961	10.23
634.293	10.22
634.625	10.15
634.957	10.05
635.289	10.04
635.621	10.08
635.953	10.15
636.285	10.2
636.617	10.26
636.948	10.29
637.28	10.12
637.611	10
637.943	9.84
638.274	9.69
638.606	9.47
638.937	9.52
639.269	9.53
639.6	9.33
639.931	9.34
640.262	9.41
640.593	9.37
640.924	9.3
641.255	9.53
641.586	9.45
641.917	9.36
642.248	9.28
642.579	9.22
642.91	9.06
643.24	8.96
643.571	8.84
643.902	8.76
644.232	8.57
644.563	8.43
644.893	8.38
645.224	8.36
645.554	8.37
645.884	8.28
646.215	8.3
646.545	8.22
646.875	8.04
647.205	7.83
647.535	7.77
647.865	7.72
648.195	7.58
648.525	7.6
648.855	7.58
649.185	7.54
649.515	7.46
649.844	7.58
650.174	7.51
650.504	7.48
650.833	7.42
651.163	7.38
651.492	7.23
651.822	7.14
652.151	7.02
652.48	7.13
652.81	7.13
653.139	7.34
653.468	7.29
653.797	7.31
654.126	7.14
654.455	7.02
654.784	6.85
655.113	6.96
655.442	6.95
655.771	7.01
656.099	7.01
656.428	6.98
656.757	6.85
657.085	6.84
657.414	6.68
657.742	6.7
658.071	6.71
658.399	6.64
658.728	6.49
659.056	6.45
659.384	6.34
659.712	6.25
660.04	6.26
660.369	6.29
660.697	6.25
661.025	6.19
661.353	6.05
661.68	5.96
662.008	5.92
662.336	5.9
662.664	5.87
662.991	5.8
663.319	5.73
663.647	5.69
663.974	5.62
664.302	5.72
664.629	5.82
664.956	5.73
665.284	5.61
665.611	5.47
665.938	5.38
666.265	5.31
666.593	5.44
666.92	5.39
667.247	5.53
667.574	5.42
667.9	5.26
668.227	5.07
668.554	4.91
668.881	4.72
669.208	4.78
669.534	4.83
669.861	4.94
670.187	4.85
670.514	4.85
670.84	4.91
671.167	4.89
671.493	4.77
671.819	5.11
672.146	5.23
672.472	5.01
672.798	4.91
673.124	5.04
673.45	4.78
673.776	4.76
674.102	4.88
674.428	5.25
674.754	5.34
675.079	5.42
675.405	5.62
675.731	5.68
676.056	5.53
676.382	5.54
676.707	5.71
677.033	5.56
677.358	5.59
677.684	5.65
678.009	5.5
678.334	5.6
678.659	5.76
678.985	5.72
679.31	5.82
679.635	5.94
679.96	5.87
680.285	5.81
680.609	5.96
680.934	5.93
681.259	5.98
681.584	6.06
681.908	6.29
682.233	6.4
682.558	6.46
682.882	6.7
683.207	6.91
683.531	7.05
683.855	7.35
684.18	7.72
684.504	7.83
684.828	8.11
685.152	8.15
685.476	8.11
685.8	8.16
686.124	8.55
686.448	8.61
686.772	9.11
687.096	9.38
687.42	9.71
687.744	9.96
688.067	10.19
688.391	10.5
688.714	10.8
689.038	10.94
689.361	11.04
689.685	11.62
690.008	11.6
690.331	11.98
690.655	12.37
690.978	12.79
691.301	12.82
691.624	13.08
691.947	13.31
692.27	13.44
692.593	13.74
692.916	13.89
693.239	14.15
693.561	14.23
693.884	14.51
694.207	14.53
694.529	14.91
694.852	15.21
695.174	15.67
695.497	15.94
695.819	16.36
696.142	16.44
696.464	16.81
696.786	16.97
697.108	17.21
697.43	17.15
697.753	17.33
698.075	17.25
698.397	17.12
698.718	17
699.04	17.15
699.362	17.38
699.684	17.62
700.006	17.92
700.327	18.23
700.649	18.38
700.97	18.63
701.292	18.8
701.613	19.07
701.935	19.56
702.256	19.56
702.577	19.41
702.898	19.45
703.22	19.5
703.541	19.68
703.862	20.21
704.183	20.41
704.504	20.57
704.825	20.92
705.145	20.63
705.466	20.45
705.787	20.53
706.108	20.37
706.428	20.2
706.749	20.53
707.069	20.7
707.39	20.75
707.71	20.82
708.03	20.72
708.351	20.69
708.671	20.86
708.991	20.73
709.311	21.09
709.631	21.17
709.951	21.16
710.271	21.18
710.591	21.72
710.911	21.52
711.231	21.61
711.551	21.97
711.87	22.1
712.19	21.73
712.51	22.04
712.829	22.06
713.149	21.81
713.468	21.67
713.787	21.65
714.107	21.35
714.426	21.33
714.745	21.45
715.064	21.49
715.383	21.9
715.702	22.06
716.021	22.49
716.34	22.09
716.659	22.01
716.978	21.99
717.297	21.89
717.615	21.92
717.934	22.45
718.253	22.5
718.571	22.26
718.89	22.98
719.208	22.75
719.527	22.84
719.845	23.35
720.163	23.56
720.481	23.33
720.8	23.34
721.118	23.42
721.436	23.37
721.754	23.45
722.072	23.34
722.39	23.5
722.707	23.35
723.025	22.76
723.343	22.69
723.661	22.76
723.978	22.61
724.296	22.84
724.613	23.49
724.931	23.28
725.248	22.47
725.565	22.6
725.883	22.42
726.2	22.06
726.517	21.99
726.834	22.81
727.151	22.84
727.468	23.3
727.785	23.59
728.102	24.25
728.419	24.02
728.736	24.13
729.052	24.19
729.369	23.91
729.686	23.93
730.002	23.89
730.319	23.69
730.635	23.36
730.951	23.64
731.268	23.48
731.584	23.48
731.9	23.43
732.216	23.09
732.533	23.28
732.849	23.39
733.165	23.36
733.481	23.33
733.796	23.71
734.112	23.55
734.428	23.64
734.744	23.82
735.059	24.54
735.375	24.82
735.691	24.71
736.006	24.7
736.322	24.93
736.637	24.36
736.952	23.81
737.268	23.63
737.583	23.31
737.898	23.36
738.213	23.3
738.528	23.44
738.843	23.38
739.158	23.33
739.473	23.08
739.788	23.41
740.102	23.43
740.417	23.94
740.732	23.93
741.046	23.77
741.361	23.16
741.675	22.81
741.99	22.48
742.304	22.76
742.618	23.2
742.933	23.65
743.247	23.8
743.561	24.13
743.875	23.91
744.189	23.7
744.503	23.45
744.817	23.12
745.131	22.57
745.445	23.16
745.758	23.38
746.072	23.65
746.386	23.68
746.699	23.96
747.013	23.62
747.326	23.7
747.64	23.16
747.953	23.69
748.266	24.21
748.58	24.01
748.893	23.91
749.206	24.34
749.519	24.69
749.832	23.81
750.145	23.86
750.458	24.07
750.771	24.28
751.083	24.71
751.396	25.19
751.709	24.94
752.021	25.28
752.334	25.24
752.646	24.4
752.959	24.5
753.271	24.68
753.584	24.23
753.896	24.29
754.208	24.29
754.52	24.01
754.832	23.83
755.144	23.68
755.456	22.84
755.768	22.65
756.08	22.72
756.392	23.17
756.704	23.25
757.015	23.47
757.327	23.69
757.638	24.43
757.95	23.86
758.261	23.72
758.573	23.35
758.884	23.36
759.195	22.58
759.507	22.98
759.818	23.04
760.129	23.41
760.44	23.37
760.751	23.29
761.062	23.52
761.373	23.29
761.684	23.91
761.994	23.9
762.305	24.14
762.616	23.95
762.926	23.49
763.237	23.22
763.547	23.43
763.858	23.45
764.168	23.25
764.478	23.41
764.789	23.56
765.099	22.98
765.409	22.66
765.719	22.38
766.029	22.57
766.339	21.91
766.649	22.17
766.959	22.34
767.269	22.89
767.578	22.72
767.888	22.62
768.198	22.58
768.507	23.39
768.817	23.14
769.126	23.35
769.435	23.52
769.745	23.18
770.054	22.57
770.363	22.68
770.672	22.54
770.981	22.54
771.29	22.42
771.599	22
771.908	22.1
772.217	22.87
772.526	23.25
772.835	24.05
773.143	24.11
773.452	23.19
773.76	23.16
774.069	23.11
774.377	23.81
774.686	23.7
774.994	24.23
775.302	24.22
775.611	25.15
775.919	24.44
776.227	24.98
776.535	25.29
776.843	23.6
777.151	23.19
777.459	22.97
777.766	22.85
778.074	22.26
778.382	22.47
778.689	22.35
778.997	21.79
779.304	21.67
779.612	22.6
779.919	22.78
780.227	22.38
780.534	23.57
780.841	24.29
781.148	24.29
781.455	24.98
781.762	24.15
782.069	23.04
782.376	22.98
782.683	23.38
782.99	22.67
783.296	23.9
783.603	24.49
783.91	23.26
784.216	20.73
784.523	21.67
784.829	20.6
785.136	20.64
785.442	21.24
785.748	23.8
786.054	24.22
786.36	24.52
786.667	24.47
786.973	23.45
787.278	21.77
787.584	20.96
787.89	21.58
788.196	21.93
788.502	23.28
788.807	24.08
789.113	23.12
789.418	22.47
789.724	22.86
790.029	22.8
790.335	22.23
790.64	23.26
790.945	25.11
791.25	24.75
791.556	24.75
791.861	25.34
792.166	25.76
792.471	25.12
792.775	24.91
793.08	24.46
793.385	24.06
793.69	24.43
793.994	21.96
794.299	21.71
794.603	22.53
794.908	22.46
795.212	22.69
795.517	24.18
795.821	24.85
796.125	25.35
796.429	25.11
796.733	26.6
797.037	27.1
797.341	27.2
797.645	25.02
797.949	25.71
798.253	21.98
798.557	21.87
798.86	22.26
799.164	23.08
799.468	23.19
799.771	25.85
800.074	24.45
800.378	25.01
800.681	27
800.984	27.64
801.288	26.83
801.591	27.6
801.894	26.23
802.197	24.43
802.5	22.51
802.803	22.09
803.105	22.1
803.408	21.93
803.711	22.08
804.014	22.64
804.316	21.97
804.619	22
804.921	24.1
805.224	24.01
805.526	25.14
805.828	25.01
806.13	25.31
806.433	24.89
806.735	23.82
807.037	24.61
807.339	24.03
807.641	23.48
807.942	22.94
808.244	22.95
808.546	20.53
808.848	20.81
809.149	21.7
809.451	20.09
809.752	21.58
810.054	21.68
810.355	21.48
810.656	21.53
810.958	21.57
811.259	20.8
811.56	22.76
811.861	24.04
812.162	22.22
812.463	22.52
812.764	23.68
813.065	22.23
813.365	23.75
813.666	25.13
813.967	26.01
814.267	25.3
814.568	24.98
814.868	23.31
815.169	23.05
815.469	23.53
815.769	22.62
816.069	21.39
816.37	20.6
816.67	19.78
816.97	20.55
817.27	23.57
817.57	25.6
817.869	29.07
818.169	29.14
818.469	29.24
818.768	26.63
819.068	27.62
819.368	26.94
819.667	28.36
819.966	26.09
820.266	25.09
820.565	24.64
820.864	23.99
821.163	23.7
821.463	23.9
821.762	24.52
822.06	23.69
822.359	23.59
822.658	22.79
822.957	22.68
823.256	23.12
823.554	23.16
823.853	23.13
824.152	23.49
824.45	23.56
824.748	23.38
825.047	23.42
825.345	23.14
825.643	22.92
825.941	22.9
826.239	22.11
826.538	21.48
826.836	20.66
827.133	21.35
827.431	20.55
827.729	20.96
828.027	20.71
828.324	21.47
828.622	21
828.92	22.16
829.217	22.77
829.514	23.81
829.812	24.35
830.109	24.28
830.406	23.75
830.703	23.98
831.001	23.44
831.298	22.87
831.595	23.45
831.891	23.09
832.188	22.68
832.485	23.27
832.782	23.44
833.078	25.27
833.375	25.8
833.672	25.02
833.968	24.49
834.264	23.97
834.561	22.91
834.857	21.87
835.153	22.19
835.449	22.24
835.746	21.53
836.042	20.47
836.338	21.83
836.633	21.53
836.929	21.48
837.225	23.13
837.521	24.87
837.816	23.71
838.112	22.34
838.408	22.83
838.703	21.91
838.998	23.4
839.294	23.31
839.589	24.47
839.884	24.42
840.179	27.1
840.474	28.42
840.77	29.37
841.064	29.16
841.359	27.52
841.654	23.46
841.949	21.2
842.244	20.25
842.538	20.62
842.833	22.7
843.127	22.05
843.422	22.96
843.716	25.35
844.011	29.69
844.305	21.44
844.599	19.96
844.893	22.8
845.187	15.63
845.481	16.28
845.775	28.62
846.069	29.84
846.363	28.07
846.657	35.6
846.95	42.32
847.244	34.14
847.537	39.65
847.831	38.92
848.124	35.17
848.418	21.82
848.711	26.25
849.004	27.25
849.297	33.72
849.591	40.97
849.884	50.89
850.177	48.14
850.47	48.78
850.762	42.36
851.055	37.43
851.348	41.34
851.641	40.01
851.933	28.57
852.226	21.6
852.518	19.49
852.811	21.93
853.103	17.28
853.395	29.55
853.687	37.27
853.98	38.93
854.272	32.32
854.564	45.68
854.856	44.34
855.148	43.42
855.439	42.42
855.731	49.37
856.023	43.7
856.314	34.83
856.606	31.1
856.898	26.02
857.189	25
857.48	26.67
857.772	25.68
858.063	56.55
858.354	51.74
858.645	51.44
858.936	43.14
859.227	49.97
859.518	33.82
859.809	36.32
860.1	31.15
860.391	32.28
860.681	29.35
860.972	21.2
861.262	24.78
861.553	17.92
861.843	20.7
862.134	15.07
862.424	23.18
862.714	33.16
863.004	43.13
863.294	52.59
863.584	63.47
863.874	63.66
864.164	53.27
864.454	48.7
864.744	43.03
865.034	43.41
865.323	48.73
865.613	57.34
865.902	67.43
866.192	60.99
866.481	79.75
866.77	65.52
867.06	79.14
867.349	67.12
867.638	62.37
867.927	53.03
868.216	43.83
868.505	15.71
868.794	17.9
869.082	14.78
869.371	6.42
869.66	44.01
869.948	74.96
870.237	48.45
870.525	33.21
870.814	33.65
871.102	23.93
871.39	14.65
871.678	32.3
871.967	51.32
872.255	56.58
872.543	66.86
872.831	55.75
873.118	80.04
873.406	56.54
873.694	47.98
873.982	40.16
874.269	45.99
874.557	41.75
874.844	38.68
875.132	6.48
875.419	107.53
