Data from Ls-i3_Reflection_14-52-37-496.txt Node
Date: Tue Aug 16 14:52:37 CEST 2022
User: IDIV
Spectrometer: FLMS14958
Trigger mode: 0
Integration Time (sec): 1.000000E-1
Scans to average: 10
Electric dark correction enabled: true
Nonlinearity correction enabled: true
Boxcar width: 2
XAxis mode: Wavelengths
Number of Pixels in Spectrum: 2048
>>>>>Begin Spectral Data<<<<<
179.491	-35.33
179.869	-159.72
180.247	454.72
180.625	132.3
181.003	100.58
181.381	56.4
181.759	21.06
182.136	319.66
182.514	8.44
182.892	-315.91
183.27	-646.42
183.647	308.87
184.025	20.44
184.403	-108.54
184.78	-77.75
185.158	-114.49
185.536	210.18
185.913	53217.43
186.291	73.94
186.668	-3.1
187.046	72.43
187.423	-180.91
187.801	120.57
188.178	66.99
188.556	49.61
188.933	44.35
189.31	39.88
189.688	33.18
190.065	38.57
190.442	36.91
190.82	22.89
191.197	22.81
191.574	29.21
191.951	32.65
192.329	23.68
192.706	32.13
193.083	24.91
193.46	20.16
193.837	17.86
194.214	19.87
194.591	15.02
194.968	18.2
195.345	21.16
195.722	13.72
196.099	13.08
196.476	18.99
196.853	8.13
197.23	4.87
197.607	16.32
197.984	12.98
198.36	18.24
198.737	24.45
199.114	17.36
199.491	18.77
199.867	17.92
200.244	3.49
200.621	-10.81
200.997	8.04
201.374	-4.08
201.75	1.36
202.127	-1.95
202.504	9
202.88	-0.2
203.257	-0.92
203.633	-9.27
204.01	-5.43
204.386	-8.54
204.762	-1.9
205.139	-6.32
205.515	0.64
205.891	11.85
206.268	10.14
206.644	-0.34
207.02	-1.54
207.396	-1.88
207.773	0.9
208.149	1.06
208.525	9.05
208.901	14.84
209.277	13.93
209.653	6.29
210.029	9.94
210.405	8.24
210.781	13.08
211.157	7.06
211.533	0.43
211.909	-2.13
212.285	-3.53
212.661	-11.07
213.037	1.02
213.413	15.43
213.789	21.26
214.164	19.07
214.54	25.62
214.916	24.71
215.292	9.36
215.667	8.21
216.043	6.49
216.419	0.51
216.794	-4.05
217.17	9.34
217.545	-1.88
217.921	5.14
218.296	12.82
218.672	12.13
219.047	11.78
219.423	24.04
219.798	28.78
220.174	18.2
220.549	15.2
220.924	16.99
221.3	13.37
221.675	5.43
222.05	14.93
222.425	18.29
222.801	16.58
223.176	18.73
223.551	24.42
223.926	21.58
224.301	23.11
224.676	19.74
225.051	16.44
225.426	13.21
225.801	10.03
226.176	10.92
226.551	10.83
226.926	7.94
227.301	5.31
227.676	5.98
228.051	2.74
228.426	3.31
228.801	4.48
229.175	5.18
229.55	4.26
229.925	3.61
230.3	3.02
230.674	3.51
231.049	3.01
231.424	3.64
231.798	3.88
232.173	3.16
232.547	1.44
232.922	0.18
233.296	0.24
233.671	0.16
234.045	1.57
234.42	3.1
234.794	3.3
235.168	2.51
235.543	4.11
235.917	4.47
236.291	3.88
236.666	5.33
237.04	6.01
237.414	4.87
237.788	4.24
238.162	3.94
238.537	3.01
238.911	2.83
239.285	2.48
239.659	2.36
240.033	2.65
240.407	2.59
240.781	2.04
241.155	2.68
241.529	2.4
241.903	2.14
242.277	1.95
242.65	1.96
243.024	1.64
243.398	1.92
243.772	1.91
244.146	1.96
244.519	1.93
244.893	1.72
245.267	1.58
245.64	1.23
246.014	1.29
246.387	1.38
246.761	1.65
247.135	1.39
247.508	1.6
247.882	1.57
248.255	1.56
248.628	1.57
249.002	1.72
249.375	1.72
249.749	1.73
250.122	1.78
250.495	1.81
250.868	1.9
251.242	1.59
251.615	1.82
251.988	1.89
252.361	1.87
252.734	1.57
253.107	1.75
253.481	1.54
253.854	1.52
254.227	1.42
254.6	1.8
254.973	1.56
255.346	2.01
255.718	2.12
256.091	2.24
256.464	2.13
256.837	2.45
257.21	2.53
257.583	2.64
257.955	2.14
258.328	2.17
258.701	1.98
259.074	1.75
259.446	1.33
259.819	1.45
260.191	1.36
260.564	1.4
260.936	1.46
261.309	1.7
261.681	1.76
262.054	1.86
262.426	1.91
262.799	1.86
263.171	1.71
263.543	1.62
263.916	1.76
264.288	1.99
264.66	2
265.033	1.82
265.405	1.96
265.777	1.78
266.149	1.51
266.521	1.31
266.893	1.42
267.265	1.48
267.637	1.51
268.009	1.57
268.381	1.57
268.753	1.52
269.125	1.21
269.497	1.16
269.869	1.24
270.241	1.27
270.613	1.14
270.985	1.36
271.356	1.3
271.728	1.22
272.1	1.17
272.471	1.25
272.843	1.41
273.215	1.27
273.586	1.44
273.958	1.48
274.329	1.59
274.701	1.3
275.072	1.6
275.444	1.37
275.815	1.34
276.187	1.2
276.558	1.3
276.929	1.13
277.301	1.13
277.672	0.99
278.043	1.21
278.415	1.34
278.786	1.55
279.157	1.55
279.528	2.04
279.899	1.8
280.27	1.62
280.641	1.5
281.012	1.32
281.383	1.24
281.754	1.22
282.125	1.15
282.496	1.26
282.867	1.34
283.238	1.16
283.609	1.17
283.98	1.27
284.35	1.41
284.721	1.54
285.092	1.69
285.462	1.78
285.833	1.87
286.204	1.74
286.574	1.69
286.945	1.56
287.315	1.44
287.686	1.25
288.056	1.27
288.427	1.44
288.797	1.53
289.168	1.57
289.538	1.53
289.908	1.51
290.279	1.5
290.649	1.27
291.019	1.16
291.39	1.13
291.76	1.26
292.13	1.13
292.5	1.24
292.87	1.27
293.24	1.44
293.61	1.08
293.98	0.99
294.35	1.18
294.72	1.49
295.09	1.45
295.46	1.47
295.83	1.57
296.2	1.42
296.57	1.15
296.939	1.37
297.309	1.35
297.679	1.21
298.049	1.1
298.418	1.06
298.788	0.81
299.158	0.74
299.527	0.77
299.897	0.94
300.266	1.21
300.636	1.34
301.005	1.59
301.375	1.59
301.744	1.63
302.113	1.5
302.483	1.44
302.852	1.25
303.221	1.25
303.591	1.37
303.96	1.46
304.329	1.4
304.698	1.49
305.067	1.35
305.436	1.06
305.806	0.89
306.175	0.98
306.544	0.89
306.913	1.19
307.282	1.41
307.65	1.32
308.019	1.4
308.388	1.65
308.757	1.46
309.126	1.24
309.495	1.44
309.863	1.44
310.232	1.26
310.601	1.21
310.969	1.23
311.338	1.09
311.707	1.02
312.075	1.01
312.444	1.02
312.812	1.1
313.181	1.35
313.549	1.25
313.918	1.11
314.286	1.33
314.654	1.28
315.023	1.21
315.391	1.32
315.759	1.31
316.127	1.26
316.496	1.39
316.864	1.32
317.232	1.52
317.6	1.68
317.968	1.65
318.336	1.59
318.704	1.71
319.072	1.38
319.44	1.25
319.808	1.47
320.176	1.82
320.544	1.68
320.912	1.83
321.28	2.04
321.647	1.69
322.015	1.22
322.383	1.22
322.75	1.14
323.118	0.9
323.486	0.88
323.853	1.19
324.221	1.04
324.588	1.05
324.956	1.13
325.323	1.31
325.691	1.31
326.058	1.49
326.426	1.64
326.793	1.54
327.16	1.78
327.528	1.68
327.895	1.76
328.262	2.08
328.629	2.37
328.996	2.03
329.363	2.04
329.731	1.78
330.098	1.42
330.465	1.29
330.832	1.48
331.199	1.4
331.566	1.4
331.932	1.28
332.299	1.52
332.666	1.39
333.033	1.41
333.4	1.46
333.766	1.29
334.133	1.08
334.5	1.04
334.867	0.97
335.233	1.01
335.6	1.25
335.966	1.43
336.333	1.67
336.699	1.7
337.066	1.74
337.432	1.75
337.799	1.41
338.165	1.25
338.531	1.28
338.898	1.17
339.264	1.15
339.63	1.44
339.996	1.62
340.363	1.63
340.729	1.67
341.095	1.85
341.461	1.97
341.827	1.6
342.193	1.55
342.559	1.64
342.925	1.72
343.291	1.33
343.657	1.45
344.023	1.59
344.388	1.51
344.754	1.29
345.12	1.49
345.486	1.53
345.851	1.32
346.217	1.21
346.583	1.13
346.948	1.2
347.314	1.08
347.679	1.34
348.045	1.53
348.41	1.61
348.776	1.52
349.141	1.55
349.507	1.45
349.872	1.32
350.237	1.32
350.603	1.27
350.968	1.26
351.333	0.97
351.698	1.03
352.063	0.84
352.428	0.88
352.794	0.92
353.159	1.2
353.524	1.18
353.889	1.23
354.254	1.26
354.618	1.2
354.983	1
355.348	0.93
355.713	0.91
356.078	0.92
356.443	1.12
356.807	1.39
357.172	1.48
357.537	1.48
357.901	1.25
358.266	1.06
358.63	0.98
358.995	0.99
359.359	1.09
359.724	1.3
360.088	1.25
360.453	1.22
360.817	1.21
361.181	1.13
361.546	0.96
361.91	1
362.274	0.96
362.638	0.88
363.003	0.79
363.367	0.91
363.731	1.1
364.095	1.16
364.459	1.22
364.823	1.35
365.187	1.51
365.551	1.52
365.915	1.35
366.279	1.33
366.642	1.34
367.006	1.19
367.37	1.01
367.734	1.11
368.097	1.13
368.461	1.06
368.825	1.25
369.188	1.22
369.552	1.42
369.915	1.6
370.279	1.75
370.642	1.69
371.006	1.7
371.369	1.64
371.732	1.58
372.096	1.52
372.459	1.46
372.822	1.48
373.186	1.48
373.549	1.36
373.912	1.31
374.275	1.36
374.638	1.28
375.001	1.27
375.364	1.34
375.727	1.37
376.09	1.19
376.453	1.27
376.816	1.28
377.179	1.12
377.542	1.15
377.904	1.24
378.267	1.24
378.63	1.19
378.993	1.34
379.355	1.4
379.718	1.58
380.08	1.75
380.443	1.61
380.806	1.54
381.168	1.38
381.53	1.24
381.893	1.13
382.255	1.24
382.618	1.33
382.98	1.49
383.342	1.52
383.704	1.38
384.067	1.35
384.429	1.35
384.791	1.45
385.153	1.37
385.515	1.43
385.877	1.6
386.239	1.69
386.601	1.57
386.963	1.65
387.325	1.69
387.687	1.59
388.049	1.44
388.41	1.52
388.772	1.56
389.134	1.65
389.496	1.67
389.857	1.88
390.219	1.76
390.58	1.76
390.942	1.74
391.303	1.74
391.665	1.67
392.026	1.79
392.388	1.67
392.749	1.72
393.111	1.81
393.472	1.83
393.833	1.85
394.194	2.03
394.556	1.93
394.917	1.88
395.278	1.97
395.639	1.97
396	1.86
396.361	1.92
396.722	1.88
397.083	1.67
397.444	1.59
397.805	1.69
398.166	1.82
398.526	2
398.887	2.03
399.248	2.27
399.609	2.31
399.969	2.18
400.33	2.07
400.691	2.25
401.051	2.17
401.412	2.08
401.772	2.1
402.133	2.11
402.493	2.01
402.853	1.82
403.214	1.75
403.574	1.76
403.934	1.87
404.295	1.91
404.655	1.93
405.015	2.07
405.375	2.17
405.735	2.21
406.095	2.26
406.455	2.35
406.815	2.34
407.175	2.3
407.535	2.25
407.895	2.17
408.255	2.11
408.615	2.1
408.975	2.13
409.334	2.12
409.694	2.12
410.054	2.28
410.413	2.37
410.773	2.45
411.133	2.56
411.492	2.72
411.852	2.73
412.211	2.82
412.571	2.85
412.93	2.74
413.289	2.69
413.649	2.66
414.008	2.66
414.367	2.61
414.726	2.65
415.086	2.73
415.445	2.74
415.804	2.63
416.163	2.61
416.522	2.53
416.881	2.5
417.24	2.41
417.599	2.39
417.958	2.33
418.316	2.37
418.675	2.35
419.034	2.41
419.393	2.43
419.751	2.45
420.11	2.42
420.469	2.41
420.827	2.4
421.186	2.38
421.544	2.41
421.903	2.46
422.261	2.42
422.62	2.46
422.978	2.54
423.336	2.51
423.695	2.51
424.053	2.62
424.411	2.6
424.769	2.61
425.128	2.66
425.486	2.6
425.844	2.55
426.202	2.59
426.56	2.57
426.918	2.53
427.276	2.62
427.634	2.63
427.991	2.63
428.349	2.59
428.707	2.62
429.065	2.69
429.423	2.75
429.78	2.71
430.138	2.81
430.495	2.78
430.853	2.69
431.211	2.65
431.568	2.59
431.925	2.46
432.283	2.48
432.64	2.43
432.998	2.38
433.355	2.47
433.712	2.51
434.069	2.57
434.427	2.64
434.784	2.68
435.141	2.72
435.498	2.7
435.855	2.64
436.212	2.63
436.569	2.68
436.926	2.59
437.283	2.62
437.64	2.62
437.996	2.73
438.353	2.68
438.71	2.63
439.067	2.59
439.423	2.64
439.78	2.57
440.137	2.59
440.493	2.64
440.85	2.69
441.206	2.66
441.563	2.62
441.919	2.58
442.275	2.63
442.632	2.59
442.988	2.63
443.344	2.62
443.7	2.7
444.057	2.67
444.413	2.6
444.769	2.52
445.125	2.55
445.481	2.52
445.837	2.49
446.193	2.54
446.549	2.55
446.905	2.53
447.26	2.54
447.616	2.58
447.972	2.57
448.328	2.6
448.683	2.65
449.039	2.72
449.395	2.69
449.75	2.76
450.106	2.81
450.461	2.83
450.817	2.76
451.172	2.74
451.527	2.65
451.883	2.61
452.238	2.61
452.593	2.57
452.949	2.57
453.304	2.57
453.659	2.58
454.014	2.59
454.369	2.64
454.724	2.72
455.079	2.71
455.434	2.73
455.789	2.74
456.144	2.69
456.499	2.69
456.853	2.72
457.208	2.71
457.563	2.77
457.918	2.78
458.272	2.76
458.627	2.75
458.981	2.69
459.336	2.59
459.69	2.58
460.045	2.57
460.399	2.56
460.754	2.54
461.108	2.56
461.462	2.55
461.817	2.56
462.171	2.56
462.525	2.6
462.879	2.55
463.233	2.57
463.587	2.58
463.941	2.66
464.295	2.7
464.649	2.75
465.003	2.82
465.357	2.81
465.711	2.76
466.065	2.73
466.418	2.81
466.772	2.73
467.126	2.75
467.479	2.81
467.833	2.78
468.186	2.7
468.54	2.74
468.893	2.72
469.247	2.67
469.6	2.69
469.954	2.71
470.307	2.78
470.66	2.8
471.013	2.8
471.367	2.77
471.72	2.83
472.073	2.71
472.426	2.68
472.779	2.67
473.132	2.68
473.485	2.67
473.838	2.66
474.191	2.68
474.544	2.68
474.896	2.66
475.249	2.59
475.602	2.59
475.955	2.59
476.307	2.53
476.66	2.58
477.012	2.59
477.365	2.6
477.717	2.6
478.07	2.66
478.422	2.68
478.775	2.69
479.127	2.68
479.479	2.63
479.831	2.67
480.184	2.69
480.536	2.69
480.888	2.72
481.24	2.75
481.592	2.72
481.944	2.63
482.296	2.59
482.648	2.54
483	2.54
483.352	2.46
483.703	2.46
484.055	2.48
484.407	2.51
484.759	2.53
485.11	2.57
485.462	2.63
485.813	2.67
486.165	2.7
486.516	2.63
486.868	2.66
487.219	2.64
487.571	2.61
487.922	2.61
488.273	2.65
488.624	2.69
488.976	2.69
489.327	2.75
489.678	2.75
490.029	2.75
490.38	2.71
490.731	2.74
491.082	2.7
491.433	2.69
491.784	2.68
492.135	2.68
492.485	2.67
492.836	2.71
493.187	2.76
493.537	2.85
493.888	2.91
494.239	2.97
494.589	3
494.94	3.03
495.29	3.02
495.641	3
495.991	2.99
496.341	2.98
496.692	2.9
497.042	2.87
497.392	2.92
497.742	2.94
498.092	2.98
498.442	3.04
498.793	3.08
499.143	3.1
499.493	3.14
499.842	3.13
500.192	3.2
500.542	3.28
500.892	3.26
501.242	3.22
501.591	3.25
501.941	3.18
502.291	3.15
502.64	3.25
502.99	3.3
503.339	3.34
503.689	3.33
504.038	3.41
504.388	3.4
504.737	3.39
505.086	3.36
505.436	3.45
505.785	3.41
506.134	3.42
506.483	3.39
506.832	3.48
507.181	3.47
507.53	3.48
507.879	3.51
508.228	3.61
508.577	3.61
508.926	3.65
509.275	3.7
509.624	3.68
509.972	3.67
510.321	3.65
510.67	3.67
511.018	3.64
511.367	3.7
511.715	3.75
512.064	3.84
512.412	3.83
512.761	3.91
513.109	3.92
513.457	3.97
513.806	3.98
514.154	4.06
514.502	4.05
514.85	4.07
515.198	4.07
515.546	4.14
515.894	4.16
516.242	4.2
516.59	4.21
516.938	4.17
517.286	4.17
517.634	4.18
517.981	4.24
518.329	4.29
518.677	4.35
519.024	4.36
519.372	4.39
519.72	4.42
520.067	4.44
520.415	4.52
520.762	4.62
521.109	4.69
521.457	4.78
521.804	4.9
522.151	4.94
522.498	4.93
522.846	4.99
523.193	4.99
523.54	4.99
523.887	4.93
524.234	4.97
524.581	5.02
524.928	5.09
525.275	5.13
525.621	5.24
525.968	5.3
526.315	5.37
526.662	5.41
527.008	5.48
527.355	5.56
527.701	5.6
528.048	5.6
528.394	5.61
528.741	5.65
529.087	5.71
529.434	5.78
529.78	5.86
530.126	6.02
530.472	6.16
530.819	6.25
531.165	6.33
531.511	6.42
531.857	6.47
532.203	6.5
532.549	6.6
532.895	6.71
533.241	6.82
533.586	6.92
533.932	7.06
534.278	7.14
534.624	7.29
534.969	7.4
535.315	7.52
535.661	7.58
536.006	7.69
536.352	7.75
536.697	7.85
537.042	7.94
537.388	8.03
537.733	8.17
538.078	8.27
538.424	8.36
538.769	8.49
539.114	8.68
539.459	8.79
539.804	8.91
540.149	9.03
540.494	9.12
540.839	9.12
541.184	9.18
541.529	9.28
541.873	9.43
542.218	9.56
542.563	9.72
542.908	9.89
543.252	10.05
543.597	10.12
543.941	10.24
544.286	10.33
544.63	10.41
544.975	10.44
545.319	10.45
545.663	10.5
546.007	10.54
546.352	10.6
546.696	10.71
547.04	10.85
547.384	10.91
547.728	11.04
548.072	11.14
548.416	11.26
548.76	11.34
549.104	11.42
549.448	11.48
549.791	11.48
550.135	11.52
550.479	11.46
550.823	11.48
551.166	11.47
551.51	11.54
551.853	11.49
552.197	11.55
552.54	11.53
552.883	11.56
553.227	11.59
553.57	11.61
553.913	11.66
554.257	11.8
554.6	11.84
554.943	11.76
555.286	11.86
555.629	11.86
555.972	11.76
556.315	11.72
556.658	11.75
557.001	11.68
557.343	11.67
557.686	11.67
558.029	11.65
558.371	11.72
558.714	11.71
559.057	11.7
559.399	11.76
559.742	11.77
560.084	11.69
560.427	11.72
560.769	11.76
561.111	11.74
561.453	11.74
561.796	11.84
562.138	11.84
562.48	11.79
562.822	11.79
563.164	11.76
563.506	11.72
563.848	11.71
564.19	11.76
564.532	11.75
564.874	11.85
565.215	11.74
565.557	11.77
565.899	11.69
566.24	11.74
566.582	11.72
566.924	11.77
567.265	11.88
567.606	11.99
567.948	11.95
568.289	12.06
568.631	12.1
568.972	12.06
569.313	12.15
569.654	12.37
569.995	12.4
570.336	12.66
570.677	12.74
571.018	12.87
571.359	12.92
571.7	13.05
572.041	13.12
572.382	13.25
572.723	13.33
573.064	13.47
573.404	13.58
573.745	13.68
574.085	13.87
574.426	14.03
574.766	14.14
575.107	14.29
575.447	14.47
575.788	14.6
576.128	14.78
576.468	14.97
576.808	15.18
577.149	15.36
577.489	15.51
577.829	15.72
578.169	15.93
578.509	16.14
578.849	16.27
579.189	16.54
579.529	16.76
579.868	16.88
580.208	17.01
580.548	17.24
580.887	17.35
581.227	17.57
581.567	17.82
581.906	18.06
582.246	18.3
582.585	18.5
582.925	18.62
583.264	18.87
583.603	19.22
583.942	19.41
584.282	19.67
584.621	19.78
584.96	19.92
585.299	19.94
585.638	20.14
585.977	20.37
586.316	20.75
586.655	21.06
586.994	21.33
587.332	21.58
587.671	21.71
588.01	21.76
588.348	21.91
588.687	22.16
589.026	22.29
589.364	22.68
589.703	22.95
590.041	23.1
590.379	23.25
590.718	23.45
591.056	23.66
591.394	23.96
591.732	24.22
592.07	24.47
592.409	24.79
592.747	25
593.085	25.19
593.423	25.37
593.76	25.54
594.098	25.64
594.436	25.77
594.774	25.95
595.112	26.21
595.449	26.38
595.787	26.74
596.124	27.02
596.462	27.26
596.799	27.39
597.137	27.65
597.474	27.77
597.812	27.84
598.149	28.07
598.486	28.29
598.823	28.52
599.16	28.77
599.498	29
599.835	29.24
600.172	29.45
600.509	29.69
600.845	29.81
601.182	30.03
601.519	30.13
601.856	30.28
602.193	30.46
602.529	30.62
602.866	30.84
603.202	30.98
603.539	31.17
603.875	31.3
604.212	31.54
604.548	31.76
604.885	31.91
605.221	32.11
605.557	32.34
605.893	32.51
606.23	32.69
606.566	33.06
606.902	33.29
607.238	33.34
607.574	33.47
607.91	33.61
608.245	33.7
608.581	33.85
608.917	34.02
609.253	34.15
609.588	34.4
609.924	34.62
610.26	35.04
610.595	35.49
610.931	35.96
611.266	36.26
611.601	36.51
611.937	36.44
612.272	36.41
612.607	36.43
612.942	36.53
613.278	36.57
613.613	36.82
613.948	36.92
614.283	36.93
614.618	36.88
614.953	36.93
615.287	36.86
615.622	37.01
615.957	37.16
616.292	37.19
616.626	37.18
616.961	37.26
617.295	37.27
617.63	37.24
617.964	37.29
618.299	37.32
618.633	37.35
618.968	37.51
619.302	37.69
619.636	37.98
619.97	38.15
620.304	38.4
620.638	38.46
620.972	38.48
621.306	38.33
621.64	38.54
621.974	38.56
622.308	38.5
622.642	38.51
622.976	38.74
623.309	38.7
623.643	38.84
623.977	39.07
624.31	39.11
624.644	39.1
624.977	39.29
625.31	39.27
625.644	39.2
625.977	39.27
626.31	39.22
626.643	39.12
626.977	39.13
627.31	39.17
627.643	39.32
627.976	39.5
628.309	39.48
628.642	39.57
628.974	39.72
629.307	39.74
629.64	39.71
629.973	39.82
630.305	39.86
630.638	39.91
630.971	39.96
631.303	39.89
631.636	39.93
631.968	39.99
632.3	39.94
632.633	39.83
632.965	39.94
633.297	40.08
633.629	40.15
633.961	40.24
634.293	40.33
634.625	40.29
634.957	40.12
635.289	40.05
635.621	39.99
635.953	40.06
636.285	40.2
636.617	40.34
636.948	40.28
637.28	40.21
637.611	40.16
637.943	40.14
638.274	40.15
638.606	40.39
638.937	40.65
639.269	40.6
639.6	40.64
639.931	40.69
640.262	40.68
640.593	40.62
640.924	40.51
641.255	40.54
641.586	40.49
641.917	40.46
642.248	40.19
642.579	40.4
642.91	40.34
643.24	40.32
643.571	40.31
643.902	40.53
644.232	40.32
644.563	40.34
644.893	40.51
645.224	40.62
645.554	40.74
645.884	41.09
646.215	41.09
646.545	40.98
646.875	40.86
647.205	40.94
647.535	41.02
647.865	41.07
648.195	41.24
648.525	41.15
648.855	41.03
649.185	40.79
649.515	40.75
649.844	40.57
650.174	40.59
650.504	40.59
650.833	40.63
651.163	40.76
651.492	40.83
651.822	41
652.151	41.02
652.48	41.1
652.81	40.94
653.139	41.03
653.468	41.05
653.797	41.06
654.126	41.1
654.455	41.17
654.784	41.12
655.113	40.97
655.442	41.01
655.771	40.98
656.099	41.09
656.428	41.18
656.757	41.4
657.085	41.65
657.414	41.57
657.742	41.5
658.071	41.37
658.399	41.14
658.728	40.79
659.056	40.78
659.384	40.59
659.712	40.68
660.04	40.8
660.369	40.96
660.697	41.1
661.025	41.36
661.353	41.41
661.68	41.29
662.008	41.23
662.336	41.4
662.664	41.65
662.991	41.56
663.319	41.87
663.647	41.96
663.974	41.71
664.302	41.4
664.629	41.36
664.956	41.16
665.284	41.28
665.611	41.5
665.938	41.58
666.265	41.68
666.593	41.76
666.92	41.7
667.247	41.54
667.574	41.46
667.9	41.39
668.227	41.39
668.554	41.1
668.881	41.18
669.208	41.24
669.534	41.39
669.861	41.37
670.187	41.59
670.514	41.47
670.84	41.7
671.167	41.72
671.493	41.53
671.819	41.41
672.146	41.17
672.472	41.26
672.798	41.44
673.124	41.53
673.45	41.81
673.776	42.1
674.102	41.92
674.428	41.83
674.754	41.86
675.079	41.58
675.405	41.84
675.731	41.8
676.056	41.59
676.382	41.59
676.707	41.82
677.033	41.42
677.358	41.41
677.684	41.45
678.009	41.6
678.334	41.42
678.659	41.73
678.985	41.8
679.31	41.57
679.635	41.49
679.96	41.66
680.285	41.79
680.609	41.8
680.934	41.97
681.259	42.05
681.584	42.03
681.908	41.9
682.233	41.9
682.558	41.91
682.882	41.78
683.207	41.71
683.531	41.54
683.855	41.35
684.18	41.41
684.504	41.41
684.828	41.4
685.152	41.28
685.476	41.44
685.8	41.39
686.124	41.47
686.448	41.31
686.772	41.68
687.096	41.54
687.42	41.61
687.744	41.68
688.067	41.92
688.391	41.76
688.714	41.67
689.038	41.68
689.361	41.45
689.685	41.59
690.008	41.58
690.331	41.63
690.655	41.17
690.978	41.28
691.301	40.95
691.624	40.99
691.947	41.1
692.27	41.58
692.593	41.63
692.916	41.74
693.239	41.99
693.561	42.03
693.884	41.77
694.207	41.8
694.529	41.74
694.852	41.2
695.174	40.98
695.497	41.17
695.819	41.16
696.142	41
696.464	41.02
696.786	41.13
697.108	41.21
697.43	41.09
697.753	41.23
698.075	41.28
698.397	41.14
698.718	41.03
699.04	41.19
699.362	41.28
699.684	41.41
700.006	41.68
700.327	41.77
700.649	42.06
700.97	42.33
701.292	42.05
701.613	41.81
701.935	41.91
702.256	41.43
702.577	41.01
702.898	41.25
703.22	41.56
703.541	41.36
703.862	41.23
704.183	41.68
704.504	41.72
704.825	41.56
705.145	41.63
705.466	41.98
705.787	41.65
706.108	41.56
706.428	41.74
706.749	41.87
707.069	41.66
707.39	41.59
707.71	41.9
708.03	41.87
708.351	41.94
708.671	41.7
708.991	42.09
709.311	42.08
709.631	41.99
709.951	41.92
710.271	42.06
710.591	41.84
710.911	41.84
711.231	41.75
711.551	41.85
711.87	42.14
712.19	42.25
712.51	42.46
712.829	42.74
713.149	42.59
713.468	42.03
713.787	41.9
714.107	41.66
714.426	41.42
714.745	41.82
715.064	42.32
715.383	42.47
715.702	42.17
716.021	41.77
716.34	41.55
716.659	41.55
716.978	41.36
717.297	41.44
717.615	41.89
717.934	41.8
718.253	41.81
718.571	41.7
718.89	42
719.208	42.11
719.527	41.97
719.845	41.64
720.163	41.5
720.481	41.16
720.8	41.33
721.118	41.6
721.436	41.94
721.754	42.23
722.072	42.29
722.39	42.19
722.707	42.11
723.025	42.27
723.343	42.11
723.661	42.1
723.978	41.88
724.296	41.63
724.613	41.11
724.931	40.91
725.248	41.1
725.565	41.15
725.883	41.2
726.2	41.64
726.517	41.77
726.834	42.08
727.151	42.22
727.468	42.75
727.785	42.36
728.102	42.29
728.419	41.91
728.736	41.99
729.052	41.87
729.369	41.99
729.686	42.27
730.002	42.27
730.319	41.72
730.635	41.32
730.951	41.79
731.268	41.66
731.584	41.68
731.9	41.75
732.216	42.28
732.533	41.76
732.849	41.83
733.165	42.1
733.481	42.36
733.796	42.12
734.112	42.61
734.428	42.85
734.744	42.65
735.059	42.19
735.375	42.12
735.691	41.43
736.006	41.93
736.322	42.07
736.637	42.98
736.952	42.86
737.268	42.99
737.583	42.31
737.898	42.54
738.213	42.4
738.528	42.14
738.843	41.89
739.158	41.85
739.473	41.23
739.788	40.87
740.102	41.01
740.417	41.44
740.732	41.41
741.046	41.69
741.361	42.09
741.675	42.15
741.99	42.26
742.304	42.62
742.618	42.39
742.933	41.92
743.247	42.01
743.561	41.6
743.875	40.98
744.189	40.92
744.503	41.5
744.817	42
745.131	41.99
745.445	42.38
745.758	42.39
746.072	42.21
746.386	41.65
746.699	42.22
747.013	41.96
747.326	41.77
747.64	41.58
747.953	41.79
748.266	41.02
748.58	41.18
748.893	41.44
749.206	40.85
749.519	40.78
749.832	41.05
750.145	40.81
750.458	40.77
750.771	40.98
751.083	40.7
751.396	41.39
751.709	41.63
752.021	41.68
752.334	41.81
752.646	41.57
752.959	40.26
753.271	39.79
753.584	39.98
753.896	40.19
754.208	40.54
754.52	41.21
754.832	41.52
755.144	42.06
755.456	41.92
755.768	41.96
756.08	41.87
756.392	42.17
756.704	41.7
757.015	41.68
757.327	41.49
757.638	42.15
757.95	42.48
758.261	41.95
758.573	42.11
758.884	42
759.195	41.98
759.507	41.71
759.818	42.47
760.129	41.9
760.44	42.46
760.751	42.24
761.062	41.5
761.373	41.02
761.684	41.24
761.994	40.78
762.305	40.6
762.616	41.65
762.926	41.49
763.237	41.94
763.547	41.87
763.858	42.18
764.168	41.71
764.478	41.88
764.789	41.95
765.099	42.1
765.409	41.85
765.719	42.2
766.029	41.82
766.339	41.69
766.649	41.91
766.959	42.05
767.269	41.62
767.578	41.91
767.888	41.41
768.198	41.6
768.507	41.07
768.817	40.86
769.126	41.12
769.435	42.22
769.745	42.01
770.054	42.19
770.363	42.47
770.672	42.92
770.981	42.45
771.29	42.66
771.599	43.09
771.908	44.09
772.217	43.71
772.526	43.82
772.835	43.91
773.143	44.09
773.452	43.42
773.76	43.6
774.069	42.67
774.377	42.17
774.686	41.91
774.994	42.92
775.302	43.6
775.611	45.01
775.919	45.12
776.227	44.43
776.535	43.78
776.843	43.25
777.151	42.47
777.459	42.96
777.766	43.76
778.074	42.83
778.382	43.44
778.689	43.67
778.997	44.17
779.304	43.22
779.612	43.19
779.919	42.34
780.227	41.46
780.534	39.99
780.841	40.95
781.148	41.48
781.455	41.58
781.762	41.32
782.069	41.59
782.376	40.99
782.683	41.29
782.99	40.76
783.296	41
783.603	40.76
783.91	40.72
784.216	40.44
784.523	40.51
784.829	41.57
785.136	42.23
785.442	43.39
785.748	42.99
786.054	42.36
786.36	41.14
786.667	41.27
786.973	39.3
787.278	39.39
787.584	41.22
787.89	41.7
788.196	41.37
788.502	42.39
788.807	41.93
789.113	39.61
789.418	40.05
789.724	39.03
790.029	39.9
790.335	40.22
790.64	42.96
790.945	43.83
791.25	45.56
791.556	45.65
791.861	46.38
792.166	44.05
792.471	43.03
792.775	42.04
793.08	41.46
793.385	41.39
793.69	42.05
793.994	41.98
794.299	40.55
794.603	40.26
794.908	39.24
795.212	40.6
795.517	41.13
795.821	42.15
796.125	40.57
796.429	38.5
796.733	36.72
797.037	35.78
797.341	36.36
797.645	38.81
797.949	41.9
798.253	42.89
798.557	43.6
798.86	43.83
799.164	43.92
799.468	43.81
799.771	44.44
800.074	44.28
800.378	43.08
800.681	41.06
800.984	42.3
801.288	40.94
801.591	39.81
801.894	41.82
802.197	41.83
802.5	40.09
802.803	40.07
803.105	41.31
803.408	39.57
803.711	40.95
804.014	41.17
804.316	41.87
804.619	42.89
804.921	45.14
805.224	45.33
805.526	46.39
805.828	47.5
806.13	45.87
806.433	45.95
806.735	45.15
807.037	44.72
807.339	43.54
807.641	43.05
807.942	41.77
808.244	41.44
808.546	40.82
808.848	40.27
809.149	41.13
809.451	40.42
809.752	40.51
810.054	40.6
810.355	39.92
810.656	40.64
810.958	40.24
811.259	42.38
811.56	44.11
811.861	45.63
812.162	45
812.463	45.97
812.764	43.99
813.065	41.69
813.365	39.95
813.666	40.25
813.967	40.45
814.267	40.64
814.568	40.48
814.868	39.49
815.169	39.76
815.469	40.67
815.769	41.7
816.069	42.65
816.37	45.51
816.67	42.82
816.97	40.24
817.27	38.95
817.57	37.83
817.869	36.91
818.169	37.9
818.469	39.57
818.768	37.8
819.068	37.97
819.368	38.06
819.667	41.14
819.966	42.45
820.266	46.07
820.565	46.7
820.864	46.82
821.163	45.59
821.463	44.49
821.762	45.58
822.06	44.58
822.359	44.15
822.658	42.71
822.957	42.99
823.256	42.25
823.554	43.14
823.853	43.42
824.152	43.42
824.45	43.75
824.748	43.81
825.047	43.73
825.345	44.2
825.643	45.09
825.941	44.96
826.239	45.9
826.538	45.86
826.836	44.61
827.133	44.28
827.431	43.51
827.729	42.58
828.027	42.05
828.324	42.57
828.622	44.18
828.92	44.73
829.217	45.06
829.514	45.41
829.812	45.52
830.109	42.67
830.406	43.14
830.703	42.3
831.001	42.23
831.298	39.46
831.595	41.58
831.891	40.18
832.188	38.37
832.485	36.9
832.782	37.05
833.078	36.54
833.375	35.95
833.672	37.8
833.968	38.07
834.264	41.43
834.561	42.71
834.857	41.19
835.153	41.95
835.449	42.13
835.746	41.95
836.042	41.76
836.338	43.05
836.633	42.66
836.929	42.37
837.225	41.54
837.521	40.54
837.816	38.65
838.112	35.95
838.408	35.91
838.703	37.56
838.998	38.17
839.294	39.44
839.589	45.33
839.884	48.3
840.179	45.63
840.474	47.39
840.77	48.02
841.064	47.84
841.359	42.55
841.654	47.84
841.949	46.96
842.244	48.46
842.538	46.25
842.833	48.54
843.127	45.44
843.422	49.26
843.716	49.36
844.011	53.57
844.305	56.11
844.599	51.26
844.893	45.07
845.187	45.61
845.481	43.31
845.775	49.46
846.069	53.62
846.363	49.57
846.657	48.23
846.95	46.16
847.244	34.55
847.537	30.36
847.831	41.24
848.124	39.83
848.418	38.98
848.711	43.03
849.004	55.46
849.297	55.53
849.591	55.48
849.884	60.07
850.177	55.98
850.47	55.25
850.762	45.52
851.055	50.72
851.348	54.27
851.641	53.43
851.933	41.11
852.226	45.96
852.518	39.17
852.811	33.79
853.103	25.05
853.395	36.6
853.687	43.36
853.98	48.57
854.272	44.6
854.564	59.4
854.856	58.05
855.148	34.49
855.439	31.42
855.731	44.74
856.023	28.34
856.314	43.27
856.606	53.55
856.898	53.81
857.189	41.24
857.48	46.23
857.772	26.39
858.063	22.24
858.354	4.44
858.645	21.84
858.936	27.79
859.227	21.07
859.518	20.23
859.809	33.19
860.1	19.27
860.391	14.12
860.681	37.53
860.972	47.2
861.262	52.5
861.553	51.6
861.843	50.99
862.134	48.07
862.424	44.05
862.714	35.47
863.004	30.35
863.294	31.76
863.584	38.41
863.874	11.45
864.164	18.61
864.454	39.54
864.744	42.05
865.034	-11.93
865.323	-3.81
865.613	-12.88
865.902	-5.12
866.192	-44.09
866.481	22.35
866.77	24.62
867.06	50.63
867.349	5.92
867.638	31.09
867.927	21.32
868.216	38.2
868.505	25.42
868.794	39.91
869.082	32.2
869.371	49.75
869.66	53.1
869.948	62.71
870.237	64.64
870.525	76.18
870.814	48.46
871.102	-31.39
871.39	-34.58
871.678	-94.96
871.967	45.33
872.255	98.09
872.543	118.68
872.831	149.97
873.118	122.51
873.406	86.33
873.694	48.03
873.982	48.06
874.269	39.74
874.557	30.32
874.844	35.69
875.132	39.78
875.419	29.41
