Data from Main-i1_Reflection_16-57-14-250.txt Node
Date: Tue Aug 16 16:57:14 CEST 2022
User: IDIV
Spectrometer: FLMS14958
Trigger mode: 0
Integration Time (sec): 1.000000E-1
Scans to average: 10
Electric dark correction enabled: true
Nonlinearity correction enabled: true
Boxcar width: 2
XAxis mode: Wavelengths
Number of Pixels in Spectrum: 2048
>>>>>Begin Spectral Data<<<<<
179.491	181.82
179.869	140.86
180.247	85.91
180.625	91.96
181.003	57.91
181.381	9.95
181.759	1070.8
182.136	50.46
182.514	57.86
182.892	76.44
183.27	348.38
183.647	109.29
184.025	188.7
184.403	180.47
184.78	145
185.158	121.35
185.536	250.66
185.913	-411.61
186.291	269.31
186.668	243.03
187.046	300.09
187.423	762.5
187.801	176.34
188.178	144.38
188.556	40.29
188.933	-7.01
189.31	-6.5
189.688	-1.62
190.065	-8.22
190.442	-7.68
190.82	14.98
191.197	6.48
191.574	-1.23
191.951	6.02
192.329	-16.33
192.706	-27.69
193.083	-15.1
193.46	-12.94
193.837	-10.93
194.214	13.08
194.591	-17.02
194.968	-30.23
195.345	-15.99
195.722	-46.75
196.099	-75.01
196.476	-42.49
196.853	-29.84
197.23	-38.3
197.607	-8.38
197.984	1.09
198.36	12.9
198.737	14.74
199.114	21.59
199.491	27.94
199.867	12.14
200.244	13.83
200.621	16.26
200.997	15.61
201.374	29.81
201.75	52.63
202.127	47.18
202.504	38.71
202.88	27.91
203.257	13.85
203.633	-2.41
204.01	0.71
204.386	3.32
204.762	16.78
205.139	13.4
205.515	10.25
205.891	12.6
206.268	11.35
206.644	-5.34
207.02	-12.45
207.396	-20.53
207.773	-31.03
208.149	-31.98
208.525	-15.56
208.901	-23.73
209.277	-4.99
209.653	-11.76
210.029	-11.93
210.405	2.16
210.781	24.89
211.157	13.24
211.533	34.04
211.909	30.43
212.285	17.83
212.661	3.94
213.037	-1.12
213.413	-18.39
213.789	-27.63
214.164	-29.79
214.54	-16.76
214.916	5.15
215.292	-4.84
215.667	5.94
216.043	0.79
216.419	-9.33
216.794	-26.62
217.17	-15.36
217.545	-14.03
217.921	-7.83
218.296	-8.09
218.672	-7.47
219.047	-11.08
219.423	-17.32
219.798	-12.03
220.174	-0.96
220.549	1.67
220.924	-10.47
221.3	3.59
221.675	-3.56
222.05	-2.26
222.425	1.52
222.801	13.83
223.176	-1.66
223.551	-1.48
223.926	-5.92
224.301	-11.14
224.676	-12
225.051	7.71
225.426	13.77
225.801	11.52
226.176	12.14
226.551	8.27
226.926	2.04
227.301	-0.2
227.676	0.65
228.051	-2.31
228.426	-0.62
228.801	0.4
229.175	-1.09
229.55	-1.11
229.925	-0.57
230.3	-1.25
230.674	-1.25
231.049	1.94
231.424	0.79
231.798	0.93
232.173	2.14
232.547	2.24
232.922	0.18
233.296	1.88
233.671	3.3
234.045	3.53
234.42	2.94
234.794	2.78
235.168	-0.44
235.543	-0.98
235.917	-1.56
236.291	-1.31
236.666	-0.98
237.04	2.57
237.414	3.5
237.788	1.95
238.162	0.52
238.537	-0.47
238.911	-2.64
239.285	-2.44
239.659	-1.25
240.033	1.52
240.407	1.25
240.781	4.2
241.155	3.36
241.529	3.54
241.903	2.43
242.277	3.18
242.65	2.35
243.024	2.31
243.398	1.85
243.772	1.96
244.146	1.53
244.519	1.44
244.893	1.48
245.267	2.03
245.64	2.13
246.014	2.42
246.387	2.33
246.761	2.02
247.135	1.85
247.508	2.01
247.882	1.93
248.255	1.98
248.628	1.91
249.002	2
249.375	1.97
249.749	2.17
250.122	2.31
250.495	2.88
250.868	3.1
251.242	3.07
251.615	2.57
251.988	2.33
252.361	2.05
252.734	2.14
253.107	2.39
253.481	2.61
253.854	2.5
254.227	2.72
254.6	3.12
254.973	2.74
255.346	2.77
255.718	2.84
256.091	2.71
256.464	1.92
256.837	1.51
257.21	1.33
257.583	1.83
257.955	1.8
258.328	2.14
258.701	2.39
259.074	2.07
259.446	1.88
259.819	2.01
260.191	1.79
260.564	1.68
260.936	1.67
261.309	1.65
261.681	1.5
262.054	1.68
262.426	2.07
262.799	2.29
263.171	1.86
263.543	1.66
263.916	1.5
264.288	1.1
264.66	0.93
265.033	1.49
265.405	2.34
265.777	2.79
266.149	2.78
266.521	2.75
266.893	2.78
267.265	2.29
267.637	2.2
268.009	2.04
268.381	1.91
268.753	1.52
269.125	1.36
269.497	1.26
269.869	1.23
270.241	1.17
270.613	1.58
270.985	1.88
271.356	1.46
271.728	1.7
272.1	1.84
272.471	1.61
272.843	1.31
273.215	1.51
273.586	1.42
273.958	1.3
274.329	1.33
274.701	1.84
275.072	1.62
275.444	1.41
275.815	1.71
276.187	1.57
276.558	1.21
276.929	1.35
277.301	1.51
277.672	1.49
278.043	1.84
278.415	1.58
278.786	1.46
279.157	1.32
279.528	0.98
279.899	0.99
280.27	1.4
280.641	1.58
281.012	2.01
281.383	2.3
281.754	2.52
282.125	2.3
282.496	2.35
282.867	2.2
283.238	2.27
283.609	1.83
283.98	1.78
284.35	1.8
284.721	1.54
285.092	1.2
285.462	1.24
285.833	1.43
286.204	1.36
286.574	1.5
286.945	1.6
287.315	1.71
287.686	1.63
288.056	1.24
288.427	0.91
288.797	1.04
289.168	1.05
289.538	1.29
289.908	2.08
290.279	2.52
290.649	2.5
291.019	2.37
291.39	1.94
291.76	1.49
292.13	1.1
292.5	0.76
292.87	0.88
293.24	1.45
293.61	1.31
293.98	1.5
294.35	1.84
294.72	1.72
295.09	1.69
295.46	2.14
295.83	2.08
296.2	1.99
296.57	1.95
296.939	1.8
297.309	1.57
297.679	1.67
298.049	1.5
298.418	1.6
298.788	1.63
299.158	1.56
299.527	1.26
299.897	1.48
300.266	1.26
300.636	1.16
301.005	0.97
301.375	1.04
301.744	0.9
302.113	0.75
302.483	0.53
302.852	0.8
303.221	1.19
303.591	1.32
303.96	1.39
304.329	1.58
304.698	1.79
305.067	1.72
305.436	1.66
305.806	1.85
306.175	1.71
306.544	1.08
306.913	1.01
307.282	1.38
307.65	1.18
308.019	1.44
308.388	2.16
308.757	2.14
309.126	1.9
309.495	1.89
309.863	1.67
310.232	1.43
310.601	1.36
310.969	1.36
311.338	1.64
311.707	1.85
312.075	2.04
312.444	2.15
312.812	2.1
313.181	1.79
313.549	1.29
313.918	1.25
314.286	1.34
314.654	1.53
315.023	1.66
315.391	2.28
315.759	1.79
316.127	1.33
316.496	1.13
316.864	1.14
317.232	0.95
317.6	1.19
317.968	1.38
318.336	1.31
318.704	1.23
319.072	1.12
319.44	1.29
319.808	1.4
320.176	1.22
320.544	1.34
320.912	1.31
321.28	1.27
321.647	0.96
322.015	1.18
322.383	1.28
322.75	1.41
323.118	1.54
323.486	1.7
323.853	1.67
324.221	1.46
324.588	1.26
324.956	0.9
325.323	0.84
325.691	0.9
326.058	0.95
326.426	0.85
326.793	1.12
327.16	1.15
327.528	1.39
327.895	1.3
328.262	1.62
328.629	1.28
328.996	1.16
329.363	1.18
329.731	1.37
330.098	1.55
330.465	1.42
330.832	1.65
331.199	1.38
331.566	1.39
331.932	1.16
332.299	1.99
332.666	1.79
333.033	2.05
333.4	2.26
333.766	1.81
334.133	1.07
334.5	1.82
334.867	1.71
335.233	1.64
335.6	1.89
335.966	1.86
336.333	1.4
336.699	1.13
337.066	1.06
337.432	1.31
337.799	1.74
338.165	1.7
338.531	1.52
338.898	1.56
339.264	1.91
339.63	1.63
339.996	1.42
340.363	1.44
340.729	1.36
341.095	0.81
341.461	0.7
341.827	0.55
342.193	0.77
342.559	0.88
342.925	1.28
343.291	1.79
343.657	1.98
344.023	1.96
344.388	2.11
344.754	1.92
345.12	1.72
345.486	1.85
345.851	1.91
346.217	1.34
346.583	1.39
346.948	1.03
347.314	0.94
347.679	0.86
348.045	1.26
348.41	1.13
348.776	1.52
349.141	1.54
349.507	1.79
349.872	1.41
350.237	1.14
350.603	1.16
350.968	1.2
351.333	0.93
351.698	0.87
352.063	1.15
352.428	1.13
352.794	1.14
353.159	1.21
353.524	1.32
353.889	1.22
354.254	1.26
354.618	1.14
354.983	1.02
355.348	1.05
355.713	1.08
356.078	0.93
356.443	1.07
356.807	1.26
357.172	1.38
357.537	1.43
357.901	1.57
358.266	1.77
358.63	1.58
358.995	1.71
359.359	1.7
359.724	1.5
360.088	1.29
360.453	1.36
360.817	1.13
361.181	1.14
361.546	1.24
361.91	1.17
362.274	1.17
362.638	1.4
363.003	1.38
363.367	1.33
363.731	1.47
364.095	1.57
364.459	1.2
364.823	1.27
365.187	1.23
365.551	1.17
365.915	1.2
366.279	1.43
366.642	1.4
367.006	1.45
367.37	1.38
367.734	1.46
368.097	1.35
368.461	1.29
368.825	1.21
369.188	1.35
369.552	1.15
369.915	1.32
370.279	1.51
370.642	2.06
371.006	1.88
371.369	1.89
371.732	2.02
372.096	1.99
372.459	1.49
372.822	1.38
373.186	1.32
373.549	1.11
373.912	0.96
374.275	1.18
374.638	1.57
375.001	1.82
375.364	2.04
375.727	2.09
376.09	2.11
376.453	2.04
376.816	1.8
377.179	1.64
377.542	1.6
377.904	1.51
378.267	1.37
378.63	1.53
378.993	1.72
379.355	1.73
379.718	1.9
380.08	1.77
380.443	1.84
380.806	1.82
381.168	2.09
381.53	2.03
381.893	2.29
382.255	2.32
382.618	2.23
382.98	2.13
383.342	2.1
383.704	2
384.067	2.02
384.429	1.98
384.791	1.93
385.153	2.09
385.515	1.96
385.877	1.99
386.239	2.1
386.601	2.11
386.963	1.79
387.325	1.92
387.687	1.83
388.049	1.89
388.41	1.93
388.772	2.17
389.134	2.27
389.496	2.35
389.857	2.13
390.219	2.02
390.58	2
390.942	1.99
391.303	2.04
391.665	2.16
392.026	2.23
392.388	2.28
392.749	2.37
393.111	2.16
393.472	2.08
393.833	2.06
394.194	2.02
394.556	1.93
394.917	2.08
395.278	2.16
395.639	2.37
396	2.53
396.361	2.49
396.722	2.5
397.083	2.47
397.444	2.25
397.805	1.97
398.166	2.13
398.526	2
398.887	2.15
399.248	2.24
399.609	2.5
399.969	2.39
400.33	2.53
400.691	2.5
401.051	2.38
401.412	2.44
401.772	2.6
402.133	2.5
402.493	2.47
402.853	2.63
403.214	2.44
403.574	2.42
403.934	2.59
404.295	2.47
404.655	2.33
405.015	2.49
405.375	2.51
405.735	2.42
406.095	2.61
406.455	2.77
406.815	2.68
407.175	2.66
407.535	2.63
407.895	2.6
408.255	2.51
408.615	2.6
408.975	2.63
409.334	2.68
409.694	2.54
410.054	2.55
410.413	2.36
410.773	2.37
411.133	2.37
411.492	2.48
411.852	2.52
412.211	2.68
412.571	2.45
412.93	2.5
413.289	2.35
413.649	2.48
414.008	2.49
414.367	2.7
414.726	2.62
415.086	2.63
415.445	2.54
415.804	2.48
416.163	2.45
416.522	2.38
416.881	2.46
417.24	2.49
417.599	2.55
417.958	2.54
418.316	2.61
418.675	2.67
419.034	2.61
419.393	2.6
419.751	2.58
420.11	2.63
420.469	2.6
420.827	2.68
421.186	2.64
421.544	2.71
421.903	2.75
422.261	2.8
422.62	2.8
422.978	2.78
423.336	2.68
423.695	2.56
424.053	2.52
424.411	2.48
424.769	2.5
425.128	2.55
425.486	2.59
425.844	2.58
426.202	2.56
426.56	2.58
426.918	2.56
427.276	2.56
427.634	2.55
427.991	2.57
428.349	2.53
428.707	2.67
429.065	2.69
429.423	2.66
429.78	2.71
430.138	2.7
430.495	2.63
430.853	2.52
431.211	2.52
431.568	2.39
431.925	2.39
432.283	2.44
432.64	2.61
432.998	2.59
433.355	2.66
433.712	2.66
434.069	2.56
434.427	2.32
434.784	2.32
435.141	2.32
435.498	2.41
435.855	2.51
436.212	2.71
436.569	2.74
436.926	2.79
437.283	2.76
437.64	2.71
437.996	2.66
438.353	2.71
438.71	2.62
439.067	2.57
439.423	2.54
439.78	2.59
440.137	2.56
440.493	2.65
440.85	2.66
441.206	2.76
441.563	2.79
441.919	2.81
442.275	2.86
442.632	2.94
442.988	2.86
443.344	2.8
443.7	2.84
444.057	2.69
444.413	2.66
444.769	2.75
445.125	2.84
445.481	2.85
445.837	2.89
446.193	2.91
446.549	2.91
446.905	2.92
447.26	2.88
447.616	2.96
447.972	3.03
448.328	3.06
448.683	3.06
449.039	3.13
449.395	3.17
449.75	3.13
450.106	3.15
450.461	3.1
450.817	3.2
451.172	3.12
451.527	3.07
451.883	3
452.238	3.07
452.593	3.1
452.949	3.18
453.304	3.32
453.659	3.39
454.014	3.42
454.369	3.45
454.724	3.49
455.079	3.42
455.434	3.49
455.789	3.51
456.144	3.38
456.499	3.37
456.853	3.33
457.208	3.31
457.563	3.27
457.918	3.35
458.272	3.32
458.627	3.41
458.981	3.44
459.336	3.47
459.69	3.5
460.045	3.53
460.399	3.49
460.754	3.48
461.108	3.58
461.462	3.57
461.817	3.66
462.171	3.75
462.525	3.83
462.879	3.7
463.233	3.77
463.587	3.65
463.941	3.54
464.295	3.42
464.649	3.39
465.003	3.39
465.357	3.46
465.711	3.49
466.065	3.61
466.418	3.69
466.772	3.59
467.126	3.53
467.479	3.59
467.833	3.47
468.186	3.48
468.54	3.62
468.893	3.59
469.247	3.58
469.6	3.6
469.954	3.57
470.307	3.44
470.66	3.44
471.013	3.42
471.367	3.42
471.72	3.36
472.073	3.44
472.426	3.45
472.779	3.49
473.132	3.45
473.485	3.46
473.838	3.46
474.191	3.55
474.544	3.52
474.896	3.62
475.249	3.65
475.602	3.58
475.955	3.55
476.307	3.61
476.66	3.63
477.012	3.61
477.365	3.63
477.717	3.63
478.07	3.58
478.422	3.56
478.775	3.58
479.127	3.64
479.479	3.62
479.831	3.66
480.184	3.72
480.536	3.83
480.888	3.82
481.24	3.8
481.592	3.8
481.944	3.83
482.296	3.81
482.648	3.8
483	3.79
483.352	3.75
483.703	3.72
484.055	3.71
484.407	3.71
484.759	3.75
485.11	3.81
485.462	3.85
485.813	3.88
486.165	3.9
486.516	3.87
486.868	3.85
487.219	3.88
487.571	3.87
487.922	3.9
488.273	3.95
488.624	3.97
488.976	3.98
489.327	4.02
489.678	4.1
490.029	4.13
490.38	4.16
490.731	4.16
491.082	4.16
491.433	4.15
491.784	4.19
492.135	4.21
492.485	4.25
492.836	4.33
493.187	4.39
493.537	4.45
493.888	4.52
494.239	4.57
494.589	4.59
494.94	4.64
495.29	4.67
495.641	4.69
495.991	4.77
496.341	4.78
496.692	4.89
497.042	4.92
497.392	5
497.742	5.07
498.092	5.17
498.442	5.18
498.793	5.29
499.143	5.34
499.493	5.39
499.842	5.48
500.192	5.6
500.542	5.59
500.892	5.74
501.242	5.86
501.591	5.98
501.941	6
502.291	6.04
502.64	6.22
502.99	6.29
503.339	6.35
503.689	6.46
504.038	6.65
504.388	6.63
504.737	6.8
505.086	6.79
505.436	6.86
505.785	6.89
506.134	6.99
506.483	7.07
506.832	7.27
507.181	7.39
507.53	7.6
507.879	7.69
508.228	7.91
508.577	8.09
508.926	8.21
509.275	8.34
509.624	8.52
509.972	8.55
510.321	8.62
510.67	8.75
511.018	8.83
511.367	8.95
511.715	9.06
512.064	9.16
512.412	9.38
512.761	9.52
513.109	9.63
513.457	9.76
513.806	9.89
514.154	9.95
514.502	10.06
514.85	10.24
515.198	10.4
515.546	10.62
515.894	10.79
516.242	10.88
516.59	10.99
516.938	11.14
517.286	11.16
517.634	11.29
517.981	11.49
518.329	11.58
518.677	11.74
519.024	11.94
519.372	12.05
519.72	12.26
520.067	12.43
520.415	12.52
520.762	12.69
521.109	12.79
521.457	12.84
521.804	12.98
522.151	13.04
522.498	13.1
522.846	13.21
523.193	13.36
523.54	13.43
523.887	13.54
524.234	13.58
524.581	13.7
524.928	13.77
525.275	13.86
525.621	13.99
525.968	14.09
526.315	14.13
526.662	14.21
527.008	14.33
527.355	14.39
527.701	14.49
528.048	14.59
528.394	14.7
528.741	14.75
529.087	14.85
529.434	14.94
529.78	15.07
530.126	15.13
530.472	15.22
530.819	15.3
531.165	15.35
531.511	15.32
531.857	15.33
532.203	15.36
532.549	15.33
532.895	15.43
533.241	15.48
533.586	15.55
533.932	15.56
534.278	15.62
534.624	15.63
534.969	15.74
535.315	15.79
535.661	15.87
536.006	15.89
536.352	15.93
536.697	15.88
537.042	15.87
537.388	15.9
537.733	15.94
538.078	15.95
538.424	15.97
538.769	15.98
539.114	15.99
539.459	16.02
539.804	16.09
540.149	16.13
540.494	16.1
540.839	16.06
541.184	16.07
541.529	16.02
541.873	16.03
542.218	16.07
542.563	16.13
542.908	16.16
543.252	16.23
543.597	16.29
543.941	16.33
544.286	16.32
544.63	16.24
544.975	16.27
545.319	16.25
545.663	16.27
546.007	16.32
546.352	16.38
546.696	16.37
547.04	16.36
547.384	16.37
547.728	16.41
548.072	16.45
548.416	16.49
548.76	16.55
549.104	16.57
549.448	16.55
549.791	16.57
550.135	16.53
550.479	16.52
550.823	16.47
551.166	16.43
551.51	16.38
551.853	16.39
552.197	16.33
552.54	16.27
552.883	16.32
553.227	16.43
553.57	16.43
553.913	16.53
554.257	16.65
554.6	16.65
554.943	16.6
555.286	16.67
555.629	16.61
555.972	16.53
556.315	16.5
556.658	16.45
557.001	16.37
557.343	16.3
557.686	16.33
558.029	16.34
558.371	16.33
558.714	16.33
559.057	16.31
559.399	16.24
559.742	16.16
560.084	16.09
560.427	16.1
560.769	16.15
561.111	16.13
561.453	16.13
561.796	16.12
562.138	15.97
562.48	15.94
562.822	15.95
563.164	15.91
563.506	15.86
563.848	15.82
564.19	15.75
564.532	15.73
564.874	15.69
565.215	15.63
565.557	15.62
565.899	15.56
566.24	15.45
566.582	15.43
566.924	15.42
567.265	15.4
567.606	15.43
567.948	15.34
568.289	15.28
568.631	15.16
568.972	15.03
569.313	14.91
569.654	14.92
569.995	14.86
570.336	14.8
570.677	14.79
571.018	14.83
571.359	14.69
571.7	14.59
572.041	14.66
572.382	14.64
572.723	14.51
573.064	14.55
573.404	14.58
573.745	14.54
574.085	14.5
574.426	14.38
574.766	14.29
575.107	14.23
575.447	14.04
575.788	13.87
576.128	13.88
576.468	13.82
576.808	13.75
577.149	13.67
577.489	13.76
577.829	13.76
578.169	13.71
578.509	13.65
578.849	13.69
579.189	13.6
579.529	13.51
579.868	13.49
580.208	13.53
580.548	13.47
580.887	13.4
581.227	13.41
581.567	13.37
581.906	13.35
582.246	13.34
582.585	13.17
582.925	13.11
583.264	13.08
583.603	12.93
583.942	12.88
584.282	12.99
584.621	12.95
584.96	12.8
585.299	12.85
585.638	12.78
585.977	12.63
586.316	12.63
586.655	12.78
586.994	12.72
587.332	12.61
587.671	12.58
588.01	12.55
588.348	12.46
588.687	12.46
589.026	12.5
589.364	12.56
589.703	12.55
590.041	12.47
590.379	12.39
590.718	12.46
591.056	12.46
591.394	12.46
591.732	12.56
592.07	12.58
592.409	12.41
592.747	12.45
593.085	12.39
593.423	12.22
593.76	12.24
594.098	12.33
594.436	12.25
594.774	12.2
595.112	12.24
595.449	12.12
595.787	12.1
596.124	12.11
596.462	12.08
596.799	12.17
597.137	12.2
597.474	12.2
597.812	12.17
598.149	12.15
598.486	12.1
598.823	12.07
599.16	12.04
599.498	12.08
599.835	12.09
600.172	12.08
600.509	12.07
600.845	11.99
601.182	11.88
601.519	11.84
601.856	11.78
602.193	11.69
602.529	11.6
602.866	11.55
603.202	11.55
603.539	11.47
603.875	11.4
604.212	11.46
604.548	11.53
604.885	11.61
605.221	11.71
605.557	11.78
605.893	11.82
606.23	11.8
606.566	11.69
606.902	11.5
607.238	11.54
607.574	11.37
607.91	11.27
608.245	11.28
608.581	11.18
608.917	11.17
609.253	11.24
609.588	11.37
609.924	11.33
610.26	11.39
610.595	11.34
610.931	11.29
611.266	11.15
611.601	11.13
611.937	11.21
612.272	11.18
612.607	11.19
612.942	11.11
613.278	10.96
613.613	10.84
613.948	10.67
614.283	10.64
614.618	10.53
614.953	10.44
615.287	10.31
615.622	10.32
615.957	10.22
616.292	10.29
616.626	10.38
616.961	10.38
617.295	10.27
617.63	10.38
617.964	10.33
618.299	10.24
618.633	10.25
618.968	10.52
619.302	10.29
619.636	10.37
619.97	10.39
620.304	10.29
620.638	10.17
620.972	10.09
621.306	9.94
621.64	9.89
621.974	9.94
622.308	9.79
622.642	9.75
622.976	9.76
623.309	9.8
623.643	9.67
623.977	9.74
624.31	9.93
624.644	9.86
624.977	9.8
625.31	9.78
625.644	9.76
625.977	9.69
626.31	9.74
626.643	9.8
626.977	9.95
627.31	9.88
627.643	9.95
627.976	10.02
628.309	9.98
628.642	9.94
628.974	10.02
629.307	9.95
629.64	9.88
629.973	9.84
630.305	9.76
630.638	9.63
630.971	9.58
631.303	9.53
631.636	9.59
631.968	9.61
632.3	9.61
632.633	9.71
632.965	9.61
633.297	9.51
633.629	9.51
633.961	9.55
634.293	9.32
634.625	9.27
634.957	9.29
635.289	9.13
635.621	9.14
635.953	9.38
636.285	9.57
636.617	9.65
636.948	9.72
637.28	9.61
637.611	9.24
637.943	9.06
638.274	8.71
638.606	8.68
638.937	8.77
639.269	8.88
639.6	8.86
639.931	9.09
640.262	8.91
640.593	8.72
640.924	8.56
641.255	8.35
641.586	8.22
641.917	8.22
642.248	8.1
642.579	8.15
642.91	8.46
643.24	8.26
643.571	8.01
643.902	8.08
644.232	8
644.563	7.63
644.893	7.5
645.224	7.58
645.554	7.32
645.884	7.19
646.215	7.07
646.545	7.03
646.875	6.87
647.205	6.76
647.535	6.7
647.865	6.63
648.195	6.72
648.525	6.81
648.855	6.88
649.185	6.78
649.515	6.85
649.844	6.72
650.174	6.72
650.504	6.65
650.833	6.77
651.163	6.6
651.492	6.68
651.822	6.62
652.151	6.74
652.48	6.57
652.81	6.6
653.139	6.45
653.468	6.36
653.797	6.13
654.126	6.15
654.455	6.15
654.784	6.34
655.113	6.39
655.442	6.59
655.771	6.57
656.099	6.61
656.428	6.52
656.757	6.56
657.085	6.35
657.414	6.38
657.742	6.27
658.071	6.03
658.399	5.85
658.728	5.84
659.056	5.7
659.384	5.66
659.712	5.58
660.04	5.64
660.369	5.51
660.697	5.36
661.025	5.2
661.353	5.24
661.68	4.99
662.008	4.95
662.336	5.18
662.664	5.21
662.991	5.2
663.319	5.11
663.647	5.16
663.974	4.96
664.302	4.87
664.629	4.91
664.956	5.06
665.284	4.88
665.611	5.16
665.938	5.03
666.265	4.93
666.593	4.62
666.92	4.94
667.247	4.55
667.574	4.84
667.9	4.9
668.227	5.23
668.554	5.07
668.881	5.46
669.208	5.32
669.534	5.03
669.861	4.99
670.187	5.02
670.514	4.66
670.84	4.7
671.167	4.86
671.493	4.99
671.819	4.9
672.146	5.29
672.472	5.27
672.798	5.53
673.124	5.42
673.45	5.32
673.776	5.14
674.102	5.18
674.428	5.01
674.754	5.03
675.079	5.24
675.405	5.29
675.731	5.6
676.056	5.54
676.382	5.66
676.707	5.92
677.033	5.74
677.358	5.61
677.684	5.69
678.009	5.7
678.334	5.53
678.659	5.5
678.985	5.27
679.31	5.38
679.635	5.31
679.96	5.04
680.285	5.23
680.609	5.36
680.934	5.24
681.259	5.27
681.584	5.49
681.908	5.56
682.233	5.64
682.558	5.7
682.882	5.91
683.207	6.23
683.531	6.46
683.855	6.86
684.18	6.99
684.504	7.16
684.828	6.94
685.152	6.88
685.476	6.73
685.8	7.27
686.124	7.25
686.448	7.84
686.772	8.19
687.096	8.38
687.42	8.23
687.744	8.61
688.067	8.72
688.391	8.7
688.714	9.17
689.038	9.52
689.361	9.55
689.685	9.61
690.008	9.81
690.331	9.73
690.655	10.27
690.978	10.7
691.301	10.91
691.624	11.66
691.947	11.74
692.27	11.9
692.593	12.12
692.916	12.84
693.239	13.16
693.561	13.79
693.884	14.12
694.207	14.51
694.529	14.79
694.852	14.89
695.174	15.04
695.497	15.02
695.819	14.99
696.142	15
696.464	15.26
696.786	15.61
697.108	15.9
697.43	16.24
697.753	16.59
698.075	16.88
698.397	16.91
698.718	17.38
699.04	17.68
699.362	17.7
699.684	17.79
700.006	18.1
700.327	18.05
700.649	18.21
700.97	18.59
701.292	18.73
701.613	19.01
701.935	19.45
702.256	19.39
702.577	19.74
702.898	20.07
703.22	20.19
703.541	20.29
703.862	20.74
704.183	21
704.504	21.08
704.825	21.41
705.145	21.44
705.466	21.83
705.787	21.49
706.108	21.48
706.428	21.55
706.749	21.92
707.069	21.76
707.39	22.35
707.71	22.75
708.03	22.91
708.351	22.45
708.671	22.69
708.991	22.35
709.311	22.48
709.631	22.33
709.951	22.98
710.271	23.19
710.591	23.67
710.911	23.91
711.231	24.5
711.551	24.19
711.87	24.05
712.19	23.79
712.51	23.71
712.829	23.42
713.149	23.77
713.468	23.69
713.787	23.8
714.107	23.99
714.426	24.08
714.745	24.08
715.064	24.23
715.383	24.53
715.702	24.12
716.021	23.95
716.34	24.32
716.659	24.82
716.978	24.92
717.297	25.38
717.615	25.56
717.934	25.29
718.253	24.98
718.571	25
718.89	24.7
719.208	25.5
719.527	25.88
719.845	26.09
720.163	26
720.481	26.66
720.8	26.57
721.118	26.45
721.436	27.06
721.754	27.56
722.072	27.67
722.39	27.59
722.707	27.59
723.025	27.24
723.343	26.83
723.661	26.53
723.978	26.43
724.296	26.52
724.613	26.38
724.931	26.75
725.248	26.71
725.565	26.61
725.883	27.01
726.2	26.95
726.517	26.86
726.834	27.18
727.151	27.25
727.468	26.97
727.785	27.16
728.102	27.35
728.419	27.18
728.736	28.15
729.052	28.09
729.369	27.78
729.686	27.17
730.002	27.22
730.319	26.41
730.635	26.51
730.951	26.95
731.268	27.53
731.584	27.73
731.9	27.9
732.216	28
732.533	27.87
732.849	27.8
733.165	27.69
733.481	27.58
733.796	27.61
734.112	28.01
734.428	27.91
734.744	28.16
735.059	27.72
735.375	27.44
735.691	27.24
736.006	27.09
736.322	27.1
736.637	27.48
736.952	28.02
737.268	28.19
737.583	28.36
737.898	28
738.213	27.95
738.528	28.23
738.843	28.24
739.158	28.24
739.473	28.54
739.788	28.91
740.102	27.9
740.417	28.47
740.732	29.25
741.046	29.07
741.361	28.51
741.675	29.76
741.99	28.53
742.304	28.62
742.618	29.22
742.933	29.77
743.247	29.13
743.561	29.56
743.875	29.21
744.189	28.63
744.503	28.9
744.817	29.23
745.131	29.38
745.445	29.14
745.758	28.98
746.072	28.64
746.386	28.19
746.699	27.41
747.013	27.34
747.326	27.3
747.64	26.96
747.953	26.85
748.266	27.76
748.58	28.89
748.893	29.23
749.206	29.17
749.519	29.29
749.832	29
750.145	28.15
750.458	27.83
750.771	27.52
751.083	28.17
751.396	27.81
751.709	27.5
752.021	27.44
752.334	27.97
752.646	27.82
752.959	28.19
753.271	28.53
753.584	28.52
753.896	28.6
754.208	27.77
754.52	27.43
754.832	26.92
755.144	26.94
755.456	26.88
755.768	27.86
756.08	27.8
756.392	28.64
756.704	29.06
757.015	29.18
757.327	28.88
757.638	29.56
757.95	28.44
758.261	28.69
758.573	28.75
758.884	28.3
759.195	28.04
759.507	28.48
759.818	28.31
760.129	28.21
760.44	27.82
760.751	27.6
761.062	28.05
761.373	27.98
761.684	28.28
761.994	28.26
762.305	27.93
762.616	27.11
762.926	26.69
763.237	26.25
763.547	26.6
763.858	26.64
764.168	26.8
764.478	26.95
764.789	27.31
765.099	27.12
765.409	27.04
765.719	26.54
766.029	26.75
766.339	26.22
766.649	26.59
766.959	26.08
767.269	27.2
767.578	26.94
767.888	27.39
768.198	27.32
768.507	28.32
768.817	27.7
769.126	27.2
769.435	27.17
769.745	27.15
770.054	27.41
770.363	26.26
770.672	27.7
770.981	27.22
771.29	27.89
771.599	27.73
771.908	28.7
772.217	27.7
772.526	28.78
772.835	28.51
773.143	29.17
773.452	29.46
773.76	30.21
774.069	29.33
774.377	28.85
774.686	27.92
774.994	28.63
775.302	28.22
775.611	28.31
775.919	28.39
776.227	27.93
776.535	26.32
776.843	26
777.151	25.43
777.459	26.06
777.766	26.16
778.074	27.02
778.382	27.03
778.689	28.3
778.997	26.65
779.304	27.68
779.612	27.32
779.919	27.26
780.227	25.89
780.534	26.27
780.841	25
781.148	25.44
781.455	25.52
781.762	26.3
782.069	27.58
782.376	28.83
782.683	28.87
782.99	30.99
783.296	30.07
783.603	29.63
783.91	29.21
784.216	29.82
784.523	29.56
784.829	30.14
785.136	29.74
785.442	30.31
785.748	29.67
786.054	27.19
786.36	27.16
786.667	26.98
786.973	26.41
787.278	26.31
787.584	25.32
787.89	24.34
788.196	26.13
788.502	26.58
788.807	26.64
789.113	27.36
789.418	29.2
789.724	27.39
790.029	26.56
790.335	26.13
790.64	26.73
790.945	26.11
791.25	26.54
791.556	26.88
791.861	28.31
792.166	28.13
792.471	28.06
792.775	26.76
793.08	27.52
793.385	27.36
793.69	26.98
793.994	27.61
794.299	27.47
794.603	27.8
794.908	26.87
795.212	27.3
795.517	25.93
795.821	26.91
796.125	24.26
796.429	24.91
796.733	25.45
797.037	26.83
797.341	29.75
797.645	31.03
797.949	28.62
798.253	27.84
798.557	26.14
798.86	23.47
799.164	24.28
799.468	27.49
799.771	28.9
800.074	28.01
800.378	27.2
800.681	26.55
800.984	23.51
801.288	22.93
801.591	24.5
801.894	25.96
802.197	24.92
802.5	27.08
802.803	27.27
803.105	29.08
803.408	28.6
803.711	31.08
804.014	30.57
804.316	28.03
804.619	28.35
804.921	29.11
805.224	29.64
805.526	29.65
805.828	31.76
806.13	30.13
806.433	28.76
806.735	26.58
807.037	27.06
807.339	26.48
807.641	26.8
807.942	27.16
808.244	26.69
808.546	25
808.848	21.68
809.149	20.74
809.451	21.71
809.752	24.2
810.054	26.82
810.355	29.35
810.656	30.41
810.958	29.24
811.259	29.31
811.56	28.3
811.861	27.78
812.162	28.21
812.463	27.62
812.764	26.67
813.065	25.51
813.365	26.54
813.666	25.49
813.967	26.78
814.267	24.11
814.568	24.66
814.868	28.35
815.169	26.9
815.469	26.51
815.769	27.37
816.069	28.09
816.37	24.21
816.67	27.41
816.97	24.2
817.27	28.98
817.57	25.16
817.869	26.47
818.169	23.94
818.469	28.99
818.768	23.94
819.068	24.79
819.368	23.33
819.667	23.54
819.966	21.38
820.266	21.99
820.565	24.99
820.864	24.72
821.163	23.2
821.463	24.1
821.762	27.17
822.06	26.58
822.359	27.35
822.658	29.06
822.957	28.69
823.256	27.81
823.554	27.93
823.853	28.06
824.152	28.12
824.45	28.05
824.748	28.1
825.047	28.07
825.345	27.82
825.643	26.62
825.941	26
826.239	26.06
826.538	26
826.836	26.49
827.133	26.48
827.431	27.55
827.729	25.96
828.027	26.38
828.324	26.71
828.622	28.04
828.92	28.04
829.217	29.45
829.514	29.88
829.812	29.24
830.109	29.29
830.406	31.06
830.703	29.07
831.001	29.06
831.298	31.38
831.595	31.39
831.891	30.78
832.188	33.83
832.485	32.54
832.782	27.92
833.078	28.99
833.375	25.63
833.672	25.56
833.968	25.24
834.264	26.73
834.561	24.66
834.857	25.78
835.153	25.61
835.449	25.63
835.746	25.29
836.042	26.67
836.338	28.16
836.633	30.47
836.929	30.95
837.225	33.68
837.521	32.87
837.816	28.15
838.112	22.24
838.408	24.69
838.703	21.18
838.998	26.54
839.294	27.32
839.589	27.61
839.884	27.84
840.179	29.77
840.474	26.67
840.77	32.88
841.064	36.91
841.359	33.31
841.654	31.05
841.949	27.23
842.244	23.36
842.538	21.83
842.833	24.22
843.127	28.56
843.422	30.45
843.716	34.79
844.011	33.48
844.305	33.54
844.599	22.17
844.893	25.26
845.187	18.02
845.481	18.27
845.775	18.3
846.069	31.25
846.363	31.15
846.657	38.55
846.95	42.67
847.244	47.72
847.537	43.09
847.831	45.81
848.124	48.95
848.418	48.23
848.711	29.63
849.004	23.39
849.297	25.39
849.591	25.32
849.884	37.32
850.177	48.96
850.47	56.86
850.762	48.19
851.055	30.53
851.348	19.88
851.641	12.95
851.933	6.34
852.226	3.53
852.518	9.14
852.811	3.16
853.103	5.73
853.395	14.36
853.687	21.9
853.98	20.65
854.272	31.38
854.564	36.52
854.856	34.97
855.148	32.59
855.439	29.68
855.731	11.52
856.023	-4.75
856.314	0.77
856.606	-1.18
856.898	15.21
857.189	0.52
857.48	-7.81
857.772	-2.19
858.063	0.25
858.354	-22.66
858.645	-2
858.936	18.19
859.227	-2.48
859.518	4.8
859.809	-4.97
860.1	0.22
860.391	-24.6
860.681	-42.91
860.972	-33.79
861.262	2.69
861.553	14.08
861.843	44.66
862.134	61.6
862.424	53.4
862.714	53.04
863.004	38.22
863.294	34.87
863.584	29.88
863.874	38.25
864.164	28.43
864.454	38.84
864.744	34.45
865.034	58.96
865.323	11.32
865.613	36.84
865.902	40.3
866.192	69
866.481	42.88
866.77	98.53
867.06	135.25
867.349	133.66
867.638	69.52
867.927	130.37
868.216	76.1
868.505	26.13
868.794	25.33
869.082	-58.35
869.371	-72.59
869.66	-134.93
869.948	3538.59
870.237	-108.57
870.525	48.39
870.814	68.95
871.102	16.94
871.39	43.64
871.678	24.44
871.967	-114.58
872.255	-126.56
872.543	-77
872.831	-669.38
873.118	-1250.46
873.406	-1203.88
873.694	-5.19
873.982	-116.75
874.269	-75.14
874.557	-19.04
874.844	10.8
875.132	1.41
875.419	39.45
