Data from Piar-i1_Reflection_16-20-38-323.txt Node
Date: Tue Aug 16 16:20:38 CEST 2022
User: IDIV
Spectrometer: FLMS14958
Trigger mode: 0
Integration Time (sec): 1.000000E-1
Scans to average: 10
Electric dark correction enabled: true
Nonlinearity correction enabled: true
Boxcar width: 2
XAxis mode: Wavelengths
Number of Pixels in Spectrum: 2048
>>>>>Begin Spectral Data<<<<<
179.491	-13.66
179.869	-1.02
180.247	-10.23
180.625	-14.81
181.003	-198.89
181.381	436.38
181.759	-3274.26
182.136	459.65
182.514	81.32
182.892	-127.55
183.27	248.77
183.647	-97.73
184.025	-361.63
184.403	335.55
184.78	90.13
185.158	267.78
185.536	797.17
185.913	257.64
186.291	210.95
186.668	111.5
187.046	113.45
187.423	47.89
187.801	39.21
188.178	49.92
188.556	24.02
188.933	20.97
189.31	15.18
189.688	20.45
190.065	15.29
190.442	12.09
190.82	15.51
191.197	15.4
191.574	23.64
191.951	18.67
192.329	28.9
192.706	29.57
193.083	39.19
193.46	23.19
193.837	24.49
194.214	8.7
194.591	13.8
194.968	1.15
195.345	14.1
195.722	21.89
196.099	30.22
196.476	29.34
196.853	31.02
197.23	3.64
197.607	7.84
197.984	13.51
198.36	9.65
198.737	8.48
199.114	14.73
199.491	13.36
199.867	9.86
200.244	6.44
200.621	8.23
200.997	11.08
201.374	8.72
201.75	8.49
202.127	1.34
202.504	-4.64
202.88	-5.57
203.257	-2.34
203.633	9.61
204.01	15.85
204.386	21.48
204.762	15.79
205.139	8.57
205.515	-0.25
205.891	4.93
206.268	6.68
206.644	13.33
207.02	17.17
207.396	14.44
207.773	10.86
208.149	16.65
208.525	13.41
208.901	8.95
209.277	12.32
209.653	12.79
210.029	15.96
210.405	18.43
210.781	23.63
211.157	18.92
211.533	14.46
211.909	0.43
212.285	3.46
212.661	9.28
213.037	18.45
213.413	27.14
213.789	34.38
214.164	27.4
214.54	18.02
214.916	14.91
215.292	10.11
215.667	0.22
216.043	0.01
216.419	0.25
216.794	4.95
217.17	7.07
217.545	9
217.921	3.02
218.296	5.06
218.672	7.4
219.047	-3.81
219.423	0.82
219.798	14.02
220.174	9.48
220.549	1.42
220.924	10.25
221.3	18.26
221.675	12.77
222.05	13.9
222.425	17.34
222.801	16.02
223.176	4.81
223.551	7.88
223.926	7.54
224.301	8.19
224.676	7.02
225.051	9.36
225.426	6.35
225.801	7.95
226.176	6.58
226.551	9.19
226.926	5.85
227.301	0.9
227.676	1.82
228.051	2.77
228.426	2.6
228.801	4.04
229.175	5.12
229.55	3.81
229.925	2.44
230.3	3.11
230.674	2.48
231.049	3.13
231.424	3.66
231.798	4.79
232.173	2.16
232.547	2.05
232.922	0.54
233.296	1.03
233.671	-0.09
234.045	2.58
234.42	2.62
234.794	1.49
235.168	1.87
235.543	3.88
235.917	1.85
236.291	1.98
236.666	4.08
237.04	3.63
237.414	2.92
237.788	4.62
238.162	4.39
238.537	3.29
238.911	3.67
239.285	3.6
239.659	3.76
240.033	3.76
240.407	3.89
240.781	3.12
241.155	2.81
241.529	2.52
241.903	2.27
242.277	1.92
242.65	2.28
243.024	2.38
243.398	1.98
243.772	2.09
244.146	2.33
244.519	2.05
244.893	1.85
245.267	1.8
245.64	1.55
246.014	1.71
246.387	1.73
246.761	1.81
247.135	2.18
247.508	2.29
247.882	2.21
248.255	2.23
248.628	2.27
249.002	1.98
249.375	1.68
249.749	1.71
250.122	1.84
250.495	1.24
250.868	1.37
251.242	1.8
251.615	1.29
251.988	1.45
252.361	1.9
252.734	1.74
253.107	1.9
253.481	2.16
253.854	1.6
254.227	1.44
254.6	1.45
254.973	1.31
255.346	1.01
255.718	1.17
256.091	1.78
256.464	2.18
256.837	1.78
257.21	2.23
257.583	2.6
257.955	2.15
258.328	1.96
258.701	2.09
259.074	1.9
259.446	1.88
259.819	1.98
260.191	2.05
260.564	1.99
260.936	1.95
261.309	1.98
261.681	1.89
262.054	1.88
262.426	1.86
262.799	1.97
263.171	1.89
263.543	2.22
263.916	2.22
264.288	2.45
264.66	2.44
265.033	2.5
265.405	2.43
265.777	2.38
266.149	2.12
266.521	2.21
266.893	1.91
267.265	1.96
267.637	2.18
268.009	2.22
268.381	2.19
268.753	2.39
269.125	2.08
269.497	1.9
269.869	1.97
270.241	2.07
270.613	2.05
270.985	2
271.356	1.97
271.728	1.79
272.1	1.75
272.471	1.71
272.843	1.75
273.215	1.68
273.586	1.9
273.958	1.84
274.329	1.77
274.701	1.85
275.072	1.71
275.444	1.56
275.815	1.52
276.187	1.6
276.558	1.71
276.929	1.9
277.301	2.18
277.672	2.3
278.043	2.17
278.415	2.25
278.786	2.41
279.157	1.99
279.528	1.68
279.899	1.83
280.27	1.8
280.641	1.67
281.012	1.88
281.383	2.03
281.754	2.11
282.125	2.14
282.496	2.02
282.867	1.95
283.238	2.05
283.609	1.9
283.98	1.78
284.35	1.69
284.721	1.61
285.092	1.6
285.462	1.63
285.833	1.59
286.204	1.62
286.574	1.65
286.945	1.4
287.315	1.45
287.686	1.43
288.056	1.52
288.427	1.56
288.797	1.9
289.168	1.85
289.538	1.89
289.908	2.01
290.279	1.96
290.649	1.84
291.019	1.75
291.39	1.61
291.76	1.47
292.13	1.52
292.5	1.59
292.87	1.97
293.24	2.2
293.61	2.15
293.98	2.2
294.35	2.17
294.72	1.83
295.09	1.59
295.46	1.65
295.83	1.9
296.2	2.01
296.57	2.11
296.939	2.15
297.309	1.96
297.679	1.82
298.049	1.71
298.418	1.68
298.788	1.9
299.158	2.2
299.527	2.02
299.897	2.1
300.266	2.19
300.636	2.01
301.005	1.86
301.375	2.15
301.744	1.92
302.113	1.93
302.483	1.87
302.852	1.82
303.221	1.52
303.591	1.49
303.96	1.39
304.329	1.46
304.698	1.53
305.067	1.59
305.436	1.8
305.806	1.93
306.175	1.68
306.544	1.49
306.913	1.53
307.282	1.28
307.65	1.21
308.019	1.71
308.388	1.84
308.757	1.95
309.126	2.18
309.495	2.21
309.863	1.99
310.232	1.86
310.601	1.85
310.969	2.01
311.338	2.13
311.707	2.14
312.075	2.44
312.444	2.5
312.812	2.5
313.181	2.41
313.549	2.54
313.918	2.51
314.286	2.18
314.654	2.11
315.023	2.14
315.391	1.91
315.759	1.58
316.127	1.91
316.496	2.05
316.864	2.1
317.232	2.38
317.6	2.65
317.968	2.63
318.336	2.4
318.704	2.45
319.072	2.4
319.44	2.3
319.808	2.24
320.176	2.33
320.544	2.32
320.912	2.67
321.28	3.02
321.647	2.95
322.015	3.03
322.383	2.94
322.75	2.64
323.118	2.39
323.486	2.39
323.853	2.22
324.221	2.29
324.588	2.36
324.956	2.33
325.323	2.24
325.691	2.1
326.058	2
326.426	1.93
326.793	1.85
327.16	2.01
327.528	2.05
327.895	2.1
328.262	2.07
328.629	2.29
328.996	2.22
329.363	2.39
329.731	2.18
330.098	1.95
330.465	1.99
330.832	2.31
331.199	2.28
331.566	2.25
331.932	2.5
332.299	2.52
332.666	2.36
333.033	2.57
333.4	2.64
333.766	2.76
334.133	2.7
334.5	2.57
334.867	2.28
335.233	2.2
335.6	2.02
335.966	1.98
336.333	2.19
336.699	2.24
337.066	2.42
337.432	2.59
337.799	2.55
338.165	2.4
338.531	2.36
338.898	2.28
339.264	2.18
339.63	2.01
339.996	1.85
340.363	1.82
340.729	1.81
341.095	1.72
341.461	1.77
341.827	2.04
342.193	2.13
342.559	2.23
342.925	2.09
343.291	2.13
343.657	1.99
344.023	2
344.388	1.81
344.754	1.77
345.12	1.88
345.486	1.84
345.851	1.76
346.217	1.89
346.583	2.09
346.948	2.37
347.314	2.42
347.679	2.68
348.045	2.58
348.41	2.39
348.776	1.95
349.141	2.03
349.507	1.73
349.872	1.91
350.237	2.16
350.603	2.25
350.968	2.25
351.333	2.49
351.698	2.33
352.063	2.44
352.428	2.66
352.794	2.62
353.159	2.47
353.524	2.56
353.889	2.56
354.254	2.5
354.618	2.45
354.983	2.56
355.348	2.58
355.713	2.57
356.078	2.4
356.443	2.43
356.807	2.4
357.172	2.34
357.537	2.13
357.901	2.18
358.266	2.11
358.63	2.07
358.995	2.25
359.359	2.27
359.724	2.28
360.088	2.3
360.453	2.38
360.817	2.2
361.181	2.26
361.546	2.26
361.91	2.24
362.274	2.28
362.638	2.27
363.003	2.28
363.367	2.31
363.731	2.4
364.095	2.18
364.459	2.2
364.823	2.29
365.187	2.3
365.551	2.44
365.915	2.65
366.279	2.68
366.642	2.68
367.006	2.71
367.37	2.69
367.734	2.52
368.097	2.58
368.461	2.4
368.825	2.2
369.188	2.18
369.552	2.36
369.915	2.16
370.279	2.35
370.642	2.37
371.006	2.25
371.369	2.24
371.732	2.34
372.096	2.21
372.459	2.44
372.822	2.45
373.186	2.37
373.549	2.6
373.912	2.73
374.275	2.62
374.638	2.67
375.001	2.85
375.364	2.96
375.727	3.04
376.09	3.07
376.453	3.03
376.816	2.86
377.179	2.58
377.542	2.58
377.904	2.59
378.267	2.48
378.63	2.58
378.993	2.55
379.355	2.46
379.718	2.57
380.08	2.74
380.443	2.69
380.806	2.79
381.168	2.75
381.53	2.63
381.893	2.55
382.255	2.58
382.618	2.69
382.98	2.73
383.342	2.8
383.704	2.89
384.067	2.86
384.429	2.8
384.791	2.79
385.153	2.86
385.515	3.03
385.877	3.17
386.239	3.17
386.601	3.07
386.963	3.03
387.325	2.87
387.687	2.77
388.049	2.87
388.41	2.9
388.772	2.85
389.134	2.79
389.496	2.88
389.857	2.91
390.219	3.02
390.58	3.11
390.942	3.3
391.303	3.18
391.665	3.12
392.026	3.11
392.388	3.01
392.749	3.01
393.111	3.09
393.472	3.09
393.833	3.17
394.194	3.34
394.556	3.26
394.917	3.32
395.278	3.34
395.639	3.27
396	3.26
396.361	3.29
396.722	3.27
397.083	3.29
397.444	3.35
397.805	3.35
398.166	3.52
398.526	3.52
398.887	3.47
399.248	3.58
399.609	3.58
399.969	3.46
400.33	3.6
400.691	3.69
401.051	3.67
401.412	3.81
401.772	3.74
402.133	3.71
402.493	3.68
402.853	3.68
403.214	3.55
403.574	3.56
403.934	3.55
404.295	3.56
404.655	3.5
405.015	3.48
405.375	3.6
405.735	3.55
406.095	3.52
406.455	3.59
406.815	3.63
407.175	3.59
407.535	3.56
407.895	3.55
408.255	3.54
408.615	3.59
408.975	3.55
409.334	3.6
409.694	3.66
410.054	3.54
410.413	3.51
410.773	3.46
411.133	3.46
411.492	3.48
411.852	3.55
412.211	3.46
412.571	3.39
412.93	3.42
413.289	3.31
413.649	3.35
414.008	3.35
414.367	3.58
414.726	3.58
415.086	3.68
415.445	3.74
415.804	3.76
416.163	3.74
416.522	3.65
416.881	3.65
417.24	3.64
417.599	3.69
417.958	3.68
418.316	3.72
418.675	3.73
419.034	3.67
419.393	3.67
419.751	3.66
420.11	3.71
420.469	3.71
420.827	3.7
421.186	3.78
421.544	3.86
421.903	3.86
422.261	3.82
422.62	3.9
422.978	3.88
423.336	3.84
423.695	3.91
424.053	3.97
424.411	3.97
424.769	3.97
425.128	3.97
425.486	3.93
425.844	3.92
426.202	3.9
426.56	3.89
426.918	3.9
427.276	3.87
427.634	4
427.991	4.15
428.349	4.1
428.707	4.11
429.065	4.15
429.423	4.01
429.78	3.93
430.138	3.87
430.495	3.84
430.853	3.83
431.211	3.86
431.568	3.84
431.925	3.89
432.283	3.9
432.64	3.91
432.998	3.94
433.355	3.81
433.712	3.92
434.069	3.93
434.427	3.91
434.784	3.93
435.141	4.08
435.498	4.07
435.855	4.13
436.212	4.12
436.569	4.09
436.926	4.08
437.283	4
437.64	3.93
437.996	3.98
438.353	3.96
438.71	3.92
439.067	4.06
439.423	4.08
439.78	4.07
440.137	4.12
440.493	4.15
440.85	4.06
441.206	4.09
441.563	4.05
441.919	4.04
442.275	4
442.632	4.01
442.988	4.02
443.344	4.03
443.7	3.97
444.057	4
444.413	3.98
444.769	3.97
445.125	4
445.481	4.06
445.837	4.08
446.193	4.15
446.549	4.15
446.905	4.16
447.26	4.2
447.616	4.24
447.972	4.28
448.328	4.34
448.683	4.37
449.039	4.35
449.395	4.4
449.75	4.38
450.106	4.32
450.461	4.33
450.817	4.35
451.172	4.34
451.527	4.3
451.883	4.33
452.238	4.33
452.593	4.36
452.949	4.34
453.304	4.33
453.659	4.37
454.014	4.43
454.369	4.47
454.724	4.52
455.079	4.61
455.434	4.58
455.789	4.52
456.144	4.49
456.499	4.38
456.853	4.4
457.208	4.36
457.563	4.43
457.918	4.44
458.272	4.48
458.627	4.42
458.981	4.43
459.336	4.38
459.69	4.37
460.045	4.38
460.399	4.4
460.754	4.44
461.108	4.54
461.462	4.55
461.817	4.62
462.171	4.69
462.525	4.71
462.879	4.66
463.233	4.7
463.587	4.66
463.941	4.64
464.295	4.66
464.649	4.66
465.003	4.62
465.357	4.64
465.711	4.63
466.065	4.6
466.418	4.52
466.772	4.58
467.126	4.62
467.479	4.59
467.833	4.6
468.186	4.59
468.54	4.61
468.893	4.55
469.247	4.6
469.6	4.58
469.954	4.59
470.307	4.57
470.66	4.55
471.013	4.56
471.367	4.51
471.72	4.58
472.073	4.55
472.426	4.59
472.779	4.58
473.132	4.65
473.485	4.64
473.838	4.68
474.191	4.71
474.544	4.68
474.896	4.66
475.249	4.68
475.602	4.66
475.955	4.6
476.307	4.59
476.66	4.65
477.012	4.63
477.365	4.6
477.717	4.71
478.07	4.8
478.422	4.74
478.775	4.81
479.127	4.93
479.479	4.89
479.831	4.79
480.184	4.87
480.536	4.88
480.888	4.77
481.24	4.68
481.592	4.73
481.944	4.69
482.296	4.65
482.648	4.67
483	4.67
483.352	4.61
483.703	4.6
484.055	4.61
484.407	4.63
484.759	4.71
485.11	4.8
485.462	4.9
485.813	4.95
486.165	4.99
486.516	4.95
486.868	4.9
487.219	4.86
487.571	4.83
487.922	4.84
488.273	4.85
488.624	4.88
488.976	4.91
489.327	4.98
489.678	5.01
490.029	5.05
490.38	5.01
490.731	4.97
491.082	4.91
491.433	4.88
491.784	4.87
492.135	4.94
492.485	5.05
492.836	5.14
493.187	5.26
493.537	5.36
493.888	5.39
494.239	5.39
494.589	5.36
494.94	5.39
495.29	5.36
495.641	5.38
495.991	5.38
496.341	5.4
496.692	5.38
497.042	5.38
497.392	5.4
497.742	5.39
498.092	5.38
498.442	5.38
498.793	5.45
499.143	5.54
499.493	5.63
499.842	5.75
500.192	5.84
500.542	5.88
500.892	5.88
501.242	5.87
501.591	5.88
501.941	5.88
502.291	5.94
502.64	5.98
502.99	6.06
503.339	6.06
503.689	6.12
504.038	6.16
504.388	6.12
504.737	6.06
505.086	6.13
505.436	6.15
505.785	6.1
506.134	6.25
506.483	6.37
506.832	6.41
507.181	6.43
507.53	6.45
507.879	6.44
508.228	6.47
508.577	6.52
508.926	6.61
509.275	6.73
509.624	6.81
509.972	6.86
510.321	6.9
510.67	6.93
511.018	6.97
511.367	6.96
511.715	7
512.064	7.04
512.412	7.05
512.761	7.08
513.109	7.2
513.457	7.26
513.806	7.35
514.154	7.5
514.502	7.55
514.85	7.58
515.198	7.62
515.546	7.7
515.894	7.69
516.242	7.78
516.59	7.83
516.938	7.88
517.286	7.88
517.634	7.91
517.981	7.96
518.329	8.01
518.677	8.06
519.024	8.12
519.372	8.23
519.72	8.29
520.067	8.37
520.415	8.47
520.762	8.55
521.109	8.55
521.457	8.66
521.804	8.68
522.151	8.72
522.498	8.75
522.846	8.89
523.193	8.89
523.54	8.9
523.887	8.94
524.234	9.04
524.581	9.04
524.928	9.09
525.275	9.17
525.621	9.19
525.968	9.23
526.315	9.29
526.662	9.36
527.008	9.42
527.355	9.44
527.701	9.37
528.048	9.33
528.394	9.34
528.741	9.39
529.087	9.48
529.434	9.58
529.78	9.72
530.126	9.85
530.472	9.97
530.819	10.03
531.165	10.13
531.511	10.16
531.857	10.13
532.203	10.05
532.549	9.99
532.895	9.87
533.241	9.82
533.586	9.9
533.932	10
534.278	10.1
534.624	10.26
534.969	10.37
535.315	10.35
535.661	10.26
536.006	10.18
536.352	10.12
536.697	10.12
537.042	10.19
537.388	10.31
537.733	10.43
538.078	10.46
538.424	10.51
538.769	10.53
539.114	10.48
539.459	10.4
539.804	10.38
540.149	10.29
540.494	10.19
540.839	10.17
541.184	10.19
541.529	10.2
541.873	10.29
542.218	10.39
542.563	10.48
542.908	10.53
543.252	10.61
543.597	10.64
543.941	10.67
544.286	10.64
544.63	10.68
544.975	10.66
545.319	10.63
545.663	10.54
546.007	10.51
546.352	10.5
546.696	10.49
547.04	10.51
547.384	10.58
547.728	10.61
548.072	10.62
548.416	10.66
548.76	10.67
549.104	10.69
549.448	10.69
549.791	10.76
550.135	10.78
550.479	10.81
550.823	10.79
551.166	10.86
551.51	10.84
551.853	10.85
552.197	10.85
552.54	10.77
552.883	10.71
553.227	10.69
553.57	10.71
553.913	10.69
554.257	10.78
554.6	10.9
554.943	10.92
555.286	10.82
555.629	10.86
555.972	10.87
556.315	10.77
556.658	10.8
557.001	10.95
557.343	10.94
557.686	10.98
558.029	11.08
558.371	11.01
558.714	10.91
559.057	10.85
559.399	10.77
559.742	10.63
560.084	10.66
560.427	10.63
560.769	10.72
561.111	10.73
561.453	10.83
561.796	10.8
562.138	10.84
562.48	10.79
562.822	10.79
563.164	10.74
563.506	10.8
563.848	10.83
564.19	10.78
564.532	10.71
564.874	10.66
565.215	10.57
565.557	10.59
565.899	10.57
566.24	10.53
566.582	10.53
566.924	10.48
567.265	10.47
567.606	10.51
567.948	10.63
568.289	10.61
568.631	10.66
568.972	10.54
569.313	10.49
569.654	10.43
569.995	10.46
570.336	10.41
570.677	10.37
571.018	10.28
571.359	10.23
571.7	10.12
572.041	10.13
572.382	10.15
572.723	10.2
573.064	10.23
573.404	10.2
573.745	10.2
574.085	10.16
574.426	10.14
574.766	10.02
575.107	9.98
575.447	9.89
575.788	9.91
576.128	9.92
576.468	10.01
576.808	10.1
577.149	10.14
577.489	10.1
577.829	9.99
578.169	10
578.509	9.94
578.849	9.96
579.189	9.96
579.529	10.03
579.868	9.86
580.208	9.75
580.548	9.67
580.887	9.61
581.227	9.46
581.567	9.46
581.906	9.48
582.246	9.51
582.585	9.46
582.925	9.48
583.264	9.53
583.603	9.43
583.942	9.31
584.282	9.37
584.621	9.37
584.96	9.38
585.299	9.55
585.638	9.54
585.977	9.6
586.316	9.62
586.655	9.6
586.994	9.47
587.332	9.55
587.671	9.47
588.01	9.41
588.348	9.43
588.687	9.51
589.026	9.36
589.364	9.35
589.703	9.35
590.041	9.27
590.379	9.31
590.718	9.47
591.056	9.48
591.394	9.52
591.732	9.61
592.07	9.55
592.409	9.46
592.747	9.47
593.085	9.43
593.423	9.49
593.76	9.45
594.098	9.48
594.436	9.39
594.774	9.43
595.112	9.28
595.449	9.21
595.787	9.09
596.124	9.11
596.462	9.07
596.799	9.04
597.137	9.06
597.474	9.19
597.812	9.24
598.149	9.41
598.486	9.5
598.823	9.59
599.16	9.59
599.498	9.65
599.835	9.47
600.172	9.42
600.509	9.42
600.845	9.38
601.182	9.24
601.519	9.21
601.856	9.28
602.193	9.2
602.529	9.11
602.866	9.06
603.202	9.03
603.539	9.01
603.875	9.06
604.212	9.12
604.548	9.21
604.885	9.2
605.221	9.2
605.557	9.25
605.893	9.29
606.23	9.32
606.566	9.38
606.902	9.41
607.238	9.29
607.574	9.15
607.91	9.08
608.245	9.01
608.581	8.98
608.917	8.96
609.253	8.97
609.588	8.93
609.924	8.9
610.26	8.88
610.595	8.89
610.931	8.87
611.266	8.87
611.601	8.93
611.937	8.99
612.272	9.04
612.607	9.07
612.942	9.07
613.278	8.92
613.613	8.79
613.948	8.7
614.283	8.69
614.618	8.81
614.953	9.03
615.287	8.94
615.622	8.89
615.957	8.88
616.292	8.84
616.626	8.73
616.961	8.75
617.295	8.78
617.63	8.71
617.964	8.63
618.299	8.63
618.633	8.61
618.968	8.64
619.302	8.69
619.636	8.72
619.97	8.72
620.304	8.88
620.638	8.81
620.972	8.74
621.306	8.59
621.64	8.55
621.974	8.53
622.308	8.58
622.642	8.62
622.976	8.75
623.309	8.81
623.643	8.72
623.977	8.71
624.31	8.79
624.644	8.75
624.977	8.7
625.31	8.58
625.644	8.45
625.977	8.43
626.31	8.31
626.643	8.33
626.977	8.45
627.31	8.58
627.643	8.49
627.976	8.63
628.309	8.58
628.642	8.49
628.974	8.49
629.307	8.54
629.64	8.43
629.973	8.56
630.305	8.68
630.638	8.75
630.971	8.75
631.303	8.87
631.636	8.8
631.968	8.71
632.3	8.64
632.633	8.76
632.965	8.75
633.297	8.73
633.629	8.81
633.961	8.75
634.293	8.66
634.625	8.63
634.957	8.69
635.289	8.64
635.621	8.62
635.953	8.55
636.285	8.56
636.617	8.48
636.948	8.38
637.28	8.34
637.611	8.32
637.943	8.23
638.274	8.17
638.606	8.27
638.937	8.36
639.269	8.33
639.6	8.25
639.931	8.08
640.262	7.94
640.593	7.72
640.924	7.83
641.255	7.93
641.586	8.16
641.917	8.01
642.248	8.17
642.579	8.03
642.91	8.07
643.24	7.93
643.571	7.98
643.902	7.93
644.232	7.89
644.563	7.86
644.893	7.75
645.224	7.81
645.554	7.66
645.884	7.61
646.215	7.55
646.545	7.78
646.875	7.66
647.205	7.56
647.535	7.4
647.865	7.14
648.195	6.81
648.525	6.9
648.855	7
649.185	7.2
649.515	7.26
649.844	7.39
650.174	7.11
650.504	7.02
650.833	6.92
651.163	6.94
651.492	6.92
651.822	7.22
652.151	7.23
652.48	7.3
652.81	7.22
653.139	7.25
653.468	7
653.797	6.97
654.126	6.89
654.455	7
654.784	6.86
655.113	7.03
655.442	7.09
655.771	7.08
656.099	6.9
656.428	6.78
656.757	6.7
657.085	6.63
657.414	6.55
657.742	6.72
658.071	7.04
658.399	7.02
658.728	7.08
659.056	7.05
659.384	7.05
659.712	6.91
660.04	6.86
660.369	6.87
660.697	6.82
661.025	6.73
661.353	6.8
661.68	6.91
662.008	6.81
662.336	6.88
662.664	6.91
662.991	6.82
663.319	6.95
663.647	6.94
663.974	7.02
664.302	7.13
664.629	7.33
664.956	7.28
665.284	7.4
665.611	7.25
665.938	7.08
666.265	6.75
666.593	6.47
666.92	6.42
667.247	6.53
667.574	6.71
667.9	6.67
668.227	6.86
668.554	6.88
668.881	6.96
669.208	7
669.534	7.11
669.861	6.93
670.187	6.72
670.514	6.67
670.84	6.33
671.167	6.18
671.493	6.26
671.819	6.54
672.146	6.36
672.472	6.73
672.798	6.88
673.124	7.1
673.45	6.94
673.776	7.27
674.102	7.18
674.428	7.25
674.754	7.03
675.079	7.16
675.405	7.12
675.731	7.21
676.056	7.25
676.382	7.37
676.707	7.41
677.033	7.33
677.358	7.25
677.684	7.34
678.009	7.26
678.334	7.19
678.659	7.18
678.985	7.21
679.31	7.23
679.635	7.23
679.96	7.39
680.285	7.34
680.609	7.39
680.934	7.47
681.259	7.71
681.584	7.78
681.908	7.94
682.233	8.15
682.558	8.12
682.882	8.14
683.207	7.71
683.531	7.74
683.855	7.69
684.18	7.82
684.504	8.2
684.828	8.7
685.152	8.89
685.476	9.1
685.8	8.94
686.124	8.72
686.448	8.69
686.772	8.84
687.096	8.68
687.42	8.73
687.744	8.94
688.067	9.1
688.391	9.05
688.714	8.96
689.038	9.27
689.361	9.25
689.685	9.46
690.008	9.76
690.331	9.92
690.655	9.9
690.978	9.89
691.301	10.05
691.624	10.22
691.947	10.49
692.27	10.97
692.593	11.41
692.916	11.32
693.239	11.05
693.561	10.96
693.884	10.72
694.207	10.56
694.529	11.16
694.852	11.73
695.174	12.1
695.497	12.32
695.819	12.27
696.142	11.94
696.464	11.92
696.786	12
697.108	12.07
697.43	12.24
697.753	12.22
698.075	11.9
698.397	12.02
698.718	12.14
699.04	12.38
699.362	12.65
699.684	13.08
700.006	13.12
700.327	13.37
700.649	13.68
700.97	13.69
701.292	13.98
701.613	14.09
701.935	13.93
702.256	13.61
702.577	13.72
702.898	13.72
703.22	13.96
703.541	14.25
703.862	14.45
704.183	14.61
704.504	14.59
704.825	14.6
705.145	14.85
705.466	14.98
705.787	15.15
706.108	15.34
706.428	15.44
706.749	15.59
707.069	15.96
707.39	15.98
707.71	15.81
708.03	16.1
708.351	16.11
708.671	15.84
708.991	15.74
709.311	15.83
709.631	15.63
709.951	15.77
710.271	15.91
710.591	15.96
710.911	16.13
711.231	16.19
711.551	16.38
711.87	16.6
712.19	16.72
712.51	16.69
712.829	17.11
713.149	16.87
713.468	16.84
713.787	17.16
714.107	17.62
714.426	17.7
714.745	17.56
715.064	17.53
715.383	17.35
715.702	16.85
716.021	16.88
716.34	17.12
716.659	17.38
716.978	17.72
717.297	17.93
717.615	18.26
717.934	18.26
718.253	18.48
718.571	18.38
718.89	18.53
719.208	18.24
719.527	18.12
719.845	17.73
720.163	17.82
720.481	17.75
720.8	18.04
721.118	18.29
721.436	18.43
721.754	18.07
722.072	18.1
722.39	17.66
722.707	17.8
723.025	17.99
723.343	18.37
723.661	18.91
723.978	19.11
724.296	19.33
724.613	19.41
724.931	19.54
725.248	19
725.565	18.94
725.883	19.21
726.2	19.04
726.517	19.48
726.834	19.91
727.151	19.91
727.468	19.43
727.785	19.29
728.102	18.87
728.419	18.49
728.736	18.4
729.052	18.67
729.369	18.97
729.686	19.17
730.002	19.4
730.319	19.52
730.635	19.19
730.951	19.05
731.268	18.7
731.584	18.54
731.9	18.5
732.216	19.15
732.533	19.15
732.849	19.66
733.165	19.95
733.481	20.47
733.796	20.36
734.112	20.65
734.428	20.32
734.744	20.42
735.059	20.68
735.375	20.25
735.691	20.03
736.006	20.27
736.322	19.88
736.637	19.2
736.952	19.35
737.268	19.45
737.583	19.54
737.898	19.96
738.213	20.05
738.528	20.04
738.843	20.19
739.158	20.15
739.473	20.06
739.788	19.95
740.102	19.68
740.417	19.54
740.732	19.44
741.046	19.76
741.361	19.89
741.675	20.59
741.99	20.97
742.304	20.62
742.618	20.1
742.933	20.68
743.247	20.41
743.561	20.07
743.875	20.44
744.189	20.97
744.503	20.38
744.817	19.93
745.131	19.71
745.445	19.65
745.758	19.83
746.072	19.91
746.386	20.12
746.699	20.54
747.013	20.61
747.326	20.47
747.64	20.44
747.953	21.01
748.266	20.6
748.58	20.75
748.893	20.02
749.206	20.68
749.519	20.38
749.832	20.91
750.145	21.22
750.458	21.57
750.771	21.13
751.083	21.23
751.396	21.08
751.709	21.42
752.021	21.41
752.334	21.35
752.646	21.25
752.959	21.23
753.271	20.07
753.584	19.81
753.896	19.78
754.208	19.86
754.52	19.68
754.832	20.68
755.144	21.08
755.456	21.44
755.768	21.33
756.08	20.89
756.392	20.29
756.704	19.98
757.015	19.5
757.327	19.72
757.638	20.32
757.95	20.06
758.261	20.74
758.573	20.95
758.884	20.57
759.195	20.69
759.507	20.28
759.818	19.69
760.129	19.28
760.44	19.41
760.751	19.3
761.062	20.23
761.373	20.25
761.684	20.74
761.994	20.72
762.305	20.37
762.616	19.94
762.926	19.93
763.237	19.67
763.547	19.58
763.858	19.85
764.168	20.29
764.478	20.25
764.789	20.16
765.099	20.17
765.409	20.19
765.719	20.31
766.029	20.45
766.339	20.7
766.649	21.07
766.959	20.83
767.269	20.85
767.578	20.51
767.888	20.07
768.198	20.49
768.507	21.01
768.817	19.19
769.126	19.41
769.435	20.17
769.745	19.78
770.054	19.99
770.363	21.68
770.672	21.95
770.981	22.04
771.29	21.93
771.599	20.91
771.908	19.88
772.217	19.45
772.526	18.99
772.835	19.65
773.143	19.68
773.452	20.16
773.76	20.41
774.069	20.6
774.377	20.29
774.686	21.23
774.994	21.13
775.302	21.03
775.611	20.41
775.919	20.38
776.227	19.41
776.535	20.14
776.843	19.92
777.151	20.49
777.459	19.13
777.766	18.99
778.074	17.72
778.382	18.78
778.689	17.81
778.997	17.91
779.304	17.12
779.612	18.19
779.919	17.86
780.227	18.52
780.534	19.86
780.841	20.8
781.148	21.35
781.455	21.28
781.762	21.54
782.069	19.61
782.376	20.91
782.683	20.03
782.99	20.82
783.296	21.35
783.603	23.67
783.91	22.91
784.216	22.83
784.523	22.4
784.829	21.34
785.136	20.99
785.442	20.7
785.748	22.5
786.054	22.11
786.36	22.2
786.667	21.01
786.973	21.58
787.278	19.63
787.584	19.04
787.89	18.59
788.196	19.59
788.502	18.84
788.807	18.92
789.113	18.33
789.418	18.57
789.724	17.42
790.029	17.88
790.335	17.14
790.64	18.4
790.945	20.02
791.25	19.97
791.556	20.35
791.861	20.87
792.166	20.3
792.471	17.36
792.775	18.31
793.08	18.63
793.385	19.1
793.69	19.6
793.994	21.01
794.299	20.74
794.603	19.57
794.908	19.73
795.212	19.68
795.517	19.72
795.821	21.09
796.125	22.15
796.429	22.05
796.733	22.19
797.037	22.38
797.341	22.05
797.645	20.76
797.949	19.81
798.253	19.13
798.557	17.81
798.86	16.49
799.164	17.47
799.468	17.09
799.771	17.46
800.074	18.56
800.378	19.87
800.681	19.88
800.984	22.72
801.288	23.02
801.591	23.97
801.894	22.03
802.197	20.44
802.5	18.2
802.803	19.32
803.105	18.8
803.408	19.58
803.711	21.31
804.014	23.31
804.316	22.79
804.619	22.15
804.921	22.43
805.224	23.17
805.526	21.64
805.828	21.25
806.13	21.48
806.433	23.29
806.735	21.92
807.037	24.79
807.339	23.84
807.641	24.72
807.942	21.85
808.244	21.81
808.546	20.29
808.848	23.15
809.149	21.02
809.451	20.29
809.752	21.21
810.054	19.38
810.355	17
810.656	19.51
810.958	22.87
811.259	23.69
811.56	24.34
811.861	23.88
812.162	22.13
812.463	19.84
812.764	20.58
813.065	21.61
813.365	22.44
813.666	22.85
813.967	23.97
814.267	20.77
814.568	17.4
814.868	17.87
815.169	20.01
815.469	17.51
815.769	18.08
816.069	18.49
816.37	17.15
816.67	16.69
816.97	18.85
817.27	21.38
817.57	23.37
817.869	22.48
818.169	23.5
818.469	22.29
818.768	20.21
819.068	20.81
819.368	22.24
819.667	21.91
819.966	24.26
820.266	25.69
820.565	23.38
820.864	22.46
821.163	22.62
821.463	23.02
821.762	22.25
822.06	22.95
822.359	23.15
822.658	21.92
822.957	21.74
823.256	21.81
823.554	22.02
823.853	22.26
824.152	22.7
824.45	22.74
824.748	23.02
825.047	22.97
825.345	22.9
825.643	21.83
825.941	21.97
826.239	21.03
826.538	21.1
826.836	20.1
827.133	21.34
827.431	20.42
827.729	21.22
828.027	20.46
828.324	21.81
828.622	22.44
828.92	22.83
829.217	22.89
829.514	23.8
829.812	22.87
830.109	22.04
830.406	21.62
830.703	22.06
831.001	20.93
831.298	21.23
831.595	23.71
831.891	23.4
832.188	22.51
832.485	24.72
832.782	23.33
833.078	21.16
833.375	22.4
833.672	22.76
833.968	22.88
834.264	24.01
834.561	22.25
834.857	21.11
835.153	20.69
835.449	20.88
835.746	21.39
836.042	22.76
836.338	22.34
836.633	22.72
836.929	22.34
837.225	22.62
837.521	22.31
837.816	23.41
838.112	23.83
838.408	21.32
838.703	19.08
838.998	16.61
839.294	14.54
839.589	11.18
839.884	14.6
840.179	17.25
840.474	12.13
840.77	17.09
841.064	19.55
841.359	24.09
841.654	23.92
841.949	28
842.244	28.85
842.538	26.89
842.833	27.18
843.127	26.67
843.422	25.87
843.716	17.75
844.011	19.72
844.305	16.05
844.599	15.48
844.893	22.74
845.187	29.16
845.481	27.95
845.775	23.61
846.069	29.89
846.363	27.6
846.657	36.84
846.95	40.2
847.244	47.58
847.537	39.18
847.831	20.72
848.124	15.46
848.418	17.58
848.711	20.18
849.004	17.16
849.297	32.54
849.591	33.55
849.884	35.32
850.177	30.22
850.47	25.11
850.762	22.37
851.055	17.85
851.348	7.13
851.641	-9.76
851.933	2.04
852.226	9.13
852.518	18.99
852.811	26.33
853.103	35.53
853.395	23.8
853.687	22.58
853.98	12.11
854.272	20.62
854.564	9.51
854.856	25.71
855.148	17.31
855.439	14.93
855.731	22.38
856.023	31.44
856.314	11.97
856.606	22.54
856.898	25.13
857.189	0.43
857.48	-3.47
857.772	15.28
858.063	24.61
858.354	39.07
858.645	45.4
858.936	60.8
859.227	70.96
859.518	69.35
859.809	49.8
860.1	34.63
860.391	16.56
860.681	8.14
860.972	16.05
861.262	15.54
861.553	12.29
861.843	-5.11
862.134	-6.02
862.424	-1.74
862.714	9.44
863.004	30.27
863.294	36.88
863.584	17.94
863.874	-9.41
864.164	20.5
864.454	10.59
864.744	14.23
865.034	45.71
865.323	44.92
865.613	39.72
865.902	36.55
866.192	34.19
866.481	19.13
866.77	12.06
867.06	-9.88
867.349	-16.66
867.638	-17.82
867.927	-15.77
868.216	-15.92
868.505	6.05
868.794	1.07
869.082	43.7
869.371	27.82
869.66	38.09
869.948	41.23
870.237	58.81
870.525	16.03
870.814	35.48
871.102	22.39
871.39	36.29
871.678	48.71
871.967	65.38
872.255	91.13
872.543	94.23
872.831	33.13
873.118	1.44
873.406	-0.38
873.694	7.11
873.982	2.37
874.269	-17.9
874.557	-43.56
874.844	-195.78
875.132	1050.48
875.419	363.71
