Data from Pspu-i1_Reflection_16-41-00-286.txt Node
Date: Tue Aug 16 16:41:00 CEST 2022
User: IDIV
Spectrometer: FLMS14958
Trigger mode: 0
Integration Time (sec): 1.000000E-1
Scans to average: 10
Electric dark correction enabled: true
Nonlinearity correction enabled: true
Boxcar width: 2
XAxis mode: Wavelengths
Number of Pixels in Spectrum: 2048
>>>>>Begin Spectral Data<<<<<
179.491	125.31
179.869	213.05
180.247	375.4
180.625	267.53
181.003	-264.66
181.381	-171.43
181.759	34.69
182.136	120.95
182.514	81.8
182.892	41.21
183.27	43.84
183.647	15.29
184.025	-98.53
184.403	-50.49
184.78	-657.72
185.158	54.29
185.536	56.46
185.913	66.66
186.291	61.71
186.668	85.51
187.046	114.63
187.423	186.26
187.801	57.88
188.178	72.39
188.556	57.3
188.933	59.6
189.31	47.42
189.688	44.52
190.065	40.54
190.442	36.67
190.82	22.47
191.197	20.95
191.574	35.57
191.951	31.89
192.329	44.62
192.706	50.01
193.083	61.99
193.46	41.95
193.837	50.06
194.214	47.95
194.591	50.27
194.968	39.13
195.345	36.24
195.722	29.13
196.099	17.4
196.476	-2.8
196.853	-11.79
197.23	-0.46
197.607	3.23
197.984	3.65
198.36	26.66
198.737	33.59
199.114	33.13
199.491	31.9
199.867	31.47
200.244	31.84
200.621	29.26
200.997	21.34
201.374	29.49
201.75	39.57
202.127	37.39
202.504	45.56
202.88	42.96
203.257	37.38
203.633	31.31
204.01	24.82
204.386	16.12
204.762	18.27
205.139	23.78
205.515	27.04
205.891	26.15
206.268	32.87
206.644	36.84
207.02	26.24
207.396	18.49
207.773	24.91
208.149	24.45
208.525	25.69
208.901	40.74
209.277	47.28
209.653	52.31
210.029	51.01
210.405	52.3
210.781	50.46
211.157	50.9
211.533	42.48
211.909	50.41
212.285	41
212.661	36.05
213.037	33.74
213.413	30.98
213.789	21.42
214.164	31.93
214.54	35.62
214.916	39.31
215.292	44.11
215.667	42.36
216.043	36.64
216.419	33.2
216.794	22.38
217.17	31.27
217.545	28.11
217.921	24.6
218.296	26.13
218.672	28.68
219.047	16.98
219.423	14.54
219.798	15.35
220.174	15.13
220.549	13.35
220.924	13.62
221.3	19.7
221.675	13.1
222.05	13.8
222.425	18.76
222.801	20.17
223.176	20.45
223.551	23.98
223.926	24.72
224.301	21.11
224.676	23.05
225.051	22.58
225.426	25.77
225.801	24.8
226.176	29.46
226.551	26.59
226.926	23.26
227.301	20.35
227.676	17.4
228.051	15.58
228.426	12.63
228.801	11.17
229.175	9.63
229.55	9.39
229.925	8.3
230.3	7.96
230.674	8.73
231.049	9.85
231.424	9.77
231.798	8.76
232.173	9.8
232.547	8.76
232.922	8.86
233.296	10.69
233.671	13.09
234.045	11.73
234.42	10.58
234.794	10.28
235.168	9.91
235.543	8.25
235.917	8.3
236.291	8.3
236.666	8.19
237.04	7.73
237.414	8.42
237.788	8.99
238.162	10.97
238.537	10.8
238.911	9.69
239.285	10.71
239.659	10.55
240.033	9.38
240.407	9.19
240.781	8.97
241.155	8.02
241.529	7.51
241.903	7.04
242.277	6.51
242.65	6.51
243.024	6.43
243.398	6.32
243.772	6.52
244.146	6.52
244.519	6.45
244.893	6.43
245.267	6.77
245.64	6.82
246.014	7.15
246.387	6.88
246.761	6.18
247.135	5.65
247.508	5.39
247.882	5.25
248.255	5.25
248.628	5.45
249.002	5.59
249.375	5.6
249.749	5.83
250.122	5.96
250.495	5.79
250.868	5.69
251.242	6.11
251.615	5.62
251.988	5.28
252.361	5.51
252.734	5.58
253.107	5.23
253.481	5.39
253.854	5.54
254.227	5.27
254.6	5.23
254.973	5.46
255.346	5.6
255.718	5.62
256.091	6.05
256.464	6.29
256.837	6.47
257.21	6.37
257.583	6.4
257.955	6.03
258.328	5.91
258.701	6.08
259.074	6.15
259.446	5.59
259.819	5.31
260.191	4.96
260.564	4.76
260.936	4.67
261.309	4.81
261.681	4.99
262.054	5.16
262.426	5.18
262.799	5.12
263.171	5.12
263.543	5.43
263.916	5.55
264.288	5.84
264.66	6.22
265.033	6.38
265.405	5.91
265.777	5.74
266.149	5.09
266.521	4.71
266.893	4.85
267.265	5.09
267.637	5.42
268.009	5.94
268.381	5.96
268.753	5.87
269.125	5.71
269.497	5.59
269.869	5.65
270.241	5.45
270.613	5.44
270.985	5.25
271.356	5.09
271.728	4.88
272.1	5.08
272.471	5.1
272.843	5.02
273.215	5.08
273.586	4.87
273.958	4.91
274.329	4.6
274.701	4.7
275.072	4.62
275.444	4.95
275.815	4.9
276.187	5.13
276.558	4.95
276.929	4.91
277.301	4.77
277.672	4.63
278.043	4.51
278.415	4.65
278.786	4.67
279.157	4.69
279.528	4.8
279.899	4.66
280.27	4.76
280.641	4.72
281.012	4.39
281.383	4.14
281.754	4.24
282.125	4.19
282.496	4.28
282.867	4.58
283.238	4.8
283.609	4.97
283.98	5.09
284.35	4.96
284.721	4.72
285.092	4.66
285.462	4.44
285.833	4.29
286.204	4.3
286.574	4.67
286.945	4.72
287.315	4.85
287.686	4.87
288.056	5.08
288.427	4.99
288.797	4.64
289.168	4.38
289.538	4.61
289.908	4.32
290.279	4
290.649	4.21
291.019	4.54
291.39	4.38
291.76	4.51
292.13	4.61
292.5	4.59
292.87	4.49
293.24	4.13
293.61	4.33
293.98	4.37
294.35	4.39
294.72	4.12
295.09	4.57
295.46	4.19
295.83	4.21
296.2	4.29
296.57	4.26
296.939	3.94
297.309	3.98
297.679	4.01
298.049	3.85
298.418	3.99
298.788	4.25
299.158	4.41
299.527	4.45
299.897	4.58
300.266	4.59
300.636	4.35
301.005	4.41
301.375	4.15
301.744	4.17
302.113	4.15
302.483	4.13
302.852	4.19
303.221	4.52
303.591	4.46
303.96	4.23
304.329	4.41
304.698	4.25
305.067	4.21
305.436	4.1
305.806	4.26
306.175	4.28
306.544	4.45
306.913	4.38
307.282	4.54
307.65	4.39
308.019	4.4
308.388	4.15
308.757	3.98
309.126	3.97
309.495	3.95
309.863	3.86
310.232	3.93
310.601	3.98
310.969	3.91
311.338	4.03
311.707	4
312.075	4.14
312.444	4.21
312.812	4.3
313.181	4.42
313.549	4.37
313.918	4.25
314.286	4.23
314.654	4.26
315.023	4.15
315.391	4.1
315.759	3.9
316.127	3.89
316.496	3.65
316.864	3.36
317.232	3.47
317.6	3.79
317.968	3.81
318.336	4.1
318.704	4.46
319.072	4.47
319.44	4.32
319.808	4.33
320.176	4.08
320.544	3.9
320.912	4.01
321.28	4.45
321.647	4.36
322.015	4.56
322.383	4.6
322.75	4.43
323.118	4.02
323.486	3.94
323.853	3.78
324.221	3.92
324.588	4.02
324.956	4.13
325.323	3.87
325.691	4.15
326.058	3.94
326.426	3.96
326.793	3.78
327.16	3.98
327.528	3.82
327.895	3.96
328.262	3.88
328.629	3.93
328.996	4.16
329.363	4.17
329.731	3.71
330.098	3.44
330.465	3.23
330.832	3.08
331.199	3.14
331.566	3.54
331.932	3.73
332.299	3.6
332.666	3.67
333.033	3.59
333.4	3.64
333.766	3.65
334.133	3.88
334.5	3.8
334.867	3.66
335.233	3.75
335.6	3.69
335.966	3.59
336.333	3.82
336.699	3.88
337.066	3.74
337.432	3.83
337.799	4.14
338.165	3.82
338.531	3.77
338.898	3.86
339.264	3.76
339.63	3.52
339.996	3.74
340.363	4.04
340.729	3.88
341.095	4.21
341.461	4.46
341.827	4.37
342.193	4.24
342.559	4.56
342.925	4.74
343.291	4.8
343.657	4.75
344.023	4.92
344.388	4.88
344.754	4.47
345.12	4.34
345.486	4.51
345.851	4.35
346.217	4.26
346.583	4.34
346.948	4.39
347.314	4.57
347.679	4.79
348.045	4.94
348.41	5.06
348.776	4.92
349.141	4.78
349.507	4.72
349.872	4.76
350.237	4.58
350.603	4.75
350.968	4.93
351.333	4.97
351.698	4.76
352.063	5.08
352.428	5.13
352.794	4.95
353.159	4.97
353.524	5.17
353.889	5.16
354.254	5.38
354.618	5.47
354.983	5.36
355.348	5.63
355.713	5.72
356.078	5.74
356.443	5.76
356.807	6
357.172	5.76
357.537	5.78
357.901	5.57
358.266	5.69
358.63	5.69
358.995	5.66
359.359	5.56
359.724	5.68
360.088	5.42
360.453	5.36
360.817	5.56
361.181	5.49
361.546	5.51
361.91	5.71
362.274	5.75
362.638	5.79
363.003	5.92
363.367	6.16
363.731	6.3
364.095	6.5
364.459	6.36
364.823	6.39
365.187	6.23
365.551	6.1
365.915	6.13
366.279	6.31
366.642	6.44
367.006	6.52
367.37	6.47
367.734	6.41
368.097	6.49
368.461	6.67
368.825	6.64
369.188	6.93
369.552	6.86
369.915	6.94
370.279	6.66
370.642	6.54
371.006	6.37
371.369	6.31
371.732	5.99
372.096	6.03
372.459	6.11
372.822	6.23
373.186	6.34
373.549	6.55
373.912	6.68
374.275	6.42
374.638	6.47
375.001	6.53
375.364	6.51
375.727	6.5
376.09	6.68
376.453	6.75
376.816	6.61
377.179	6.56
377.542	6.5
377.904	6.6
378.267	6.28
378.63	6.3
378.993	6.38
379.355	6.51
379.718	6.37
380.08	6.61
380.443	6.6
380.806	6.68
381.168	6.52
381.53	6.53
381.893	6.45
382.255	6.53
382.618	6.33
382.98	6.36
383.342	6.29
383.704	6.33
384.067	6.36
384.429	6.3
384.791	6.25
385.153	6.41
385.515	6.55
385.877	6.52
386.239	6.56
386.601	6.64
386.963	6.65
387.325	6.6
387.687	6.52
388.049	6.42
388.41	6.32
388.772	6.33
389.134	6.1
389.496	6.04
389.857	6.23
390.219	6.29
390.58	6.18
390.942	6.41
391.303	6.46
391.665	6.4
392.026	6.36
392.388	6.41
392.749	6.22
393.111	6.15
393.472	6.17
393.833	6.16
394.194	6.25
394.556	6.2
394.917	6.2
395.278	6.11
395.639	6.18
396	6.15
396.361	6.18
396.722	6.15
397.083	6.18
397.444	6.11
397.805	6.02
398.166	6.16
398.526	6.14
398.887	6.17
399.248	5.99
399.609	5.82
399.969	5.6
400.33	5.62
400.691	5.63
401.051	5.8
401.412	5.8
401.772	5.78
402.133	5.79
402.493	5.66
402.853	5.62
403.214	5.71
403.574	5.81
403.934	5.67
404.295	5.65
404.655	5.54
405.015	5.47
405.375	5.33
405.735	5.34
406.095	5.28
406.455	5.24
406.815	5.23
407.175	5.33
407.535	5.51
407.895	5.59
408.255	5.65
408.615	5.54
408.975	5.43
409.334	5.19
409.694	5.1
410.054	5.12
410.413	5.12
410.773	5.04
411.133	5.1
411.492	5.12
411.852	5.06
412.211	5.19
412.571	5.27
412.93	5.3
413.289	5.28
413.649	5.27
414.008	5.2
414.367	5.13
414.726	4.97
415.086	4.91
415.445	4.76
415.804	4.74
416.163	4.74
416.522	4.73
416.881	4.75
417.24	4.86
417.599	4.73
417.958	4.72
418.316	4.71
418.675	4.69
419.034	4.68
419.393	4.74
419.751	4.69
420.11	4.7
420.469	4.65
420.827	4.62
421.186	4.57
421.544	4.59
421.903	4.5
422.261	4.55
422.62	4.49
422.978	4.5
423.336	4.47
423.695	4.57
424.053	4.5
424.411	4.52
424.769	4.56
425.128	4.59
425.486	4.57
425.844	4.56
426.202	4.6
426.56	4.54
426.918	4.51
427.276	4.51
427.634	4.61
427.991	4.53
428.349	4.54
428.707	4.47
429.065	4.43
429.423	4.26
429.78	4.29
430.138	4.27
430.495	4.29
430.853	4.31
431.211	4.32
431.568	4.42
431.925	4.32
432.283	4.32
432.64	4.31
432.998	4.37
433.355	4.37
433.712	4.42
434.069	4.46
434.427	4.41
434.784	4.44
435.141	4.28
435.498	4.34
435.855	4.32
436.212	4.35
436.569	4.31
436.926	4.42
437.283	4.42
437.64	4.35
437.996	4.35
438.353	4.38
438.71	4.34
439.067	4.31
439.423	4.27
439.78	4.27
440.137	4.2
440.493	4.19
440.85	4.17
441.206	4.27
441.563	4.31
441.919	4.31
442.275	4.37
442.632	4.36
442.988	4.39
443.344	4.4
443.7	4.43
444.057	4.39
444.413	4.44
444.769	4.41
445.125	4.37
445.481	4.37
445.837	4.41
446.193	4.41
446.549	4.47
446.905	4.53
447.26	4.61
447.616	4.66
447.972	4.77
448.328	4.86
448.683	4.89
449.039	4.92
449.395	5
449.75	5
450.106	4.98
450.461	5.07
450.817	5.13
451.172	5.09
451.527	5.09
451.883	5.1
452.238	5.11
452.593	5.14
452.949	5.19
453.304	5.23
453.659	5.32
454.014	5.29
454.369	5.36
454.724	5.39
455.079	5.43
455.434	5.42
455.789	5.49
456.144	5.38
456.499	5.46
456.853	5.43
457.208	5.49
457.563	5.46
457.918	5.55
458.272	5.46
458.627	5.42
458.981	5.29
459.336	5.27
459.69	5.21
460.045	5.19
460.399	5.25
460.754	5.33
461.108	5.4
461.462	5.5
461.817	5.59
462.171	5.57
462.525	5.62
462.879	5.59
463.233	5.6
463.587	5.59
463.941	5.59
464.295	5.54
464.649	5.5
465.003	5.48
465.357	5.39
465.711	5.42
466.065	5.42
466.418	5.45
466.772	5.42
467.126	5.52
467.479	5.45
467.833	5.38
468.186	5.41
468.54	5.51
468.893	5.47
469.247	5.52
469.6	5.6
469.954	5.62
470.307	5.61
470.66	5.58
471.013	5.67
471.367	5.62
471.72	5.58
472.073	5.46
472.426	5.52
472.779	5.49
473.132	5.48
473.485	5.49
473.838	5.53
474.191	5.62
474.544	5.62
474.896	5.65
475.249	5.63
475.602	5.73
475.955	5.58
476.307	5.48
476.66	5.47
477.012	5.53
477.365	5.42
477.717	5.52
478.07	5.56
478.422	5.61
478.775	5.54
479.127	5.55
479.479	5.48
479.831	5.53
480.184	5.43
480.536	5.49
480.888	5.45
481.24	5.44
481.592	5.35
481.944	5.37
482.296	5.29
482.648	5.27
483	5.23
483.352	5.18
483.703	5.18
484.055	5.21
484.407	5.27
484.759	5.35
485.11	5.45
485.462	5.58
485.813	5.66
486.165	5.65
486.516	5.6
486.868	5.55
487.219	5.45
487.571	5.42
487.922	5.43
488.273	5.5
488.624	5.59
488.976	5.73
489.327	5.83
489.678	5.92
490.029	6.01
490.38	6
490.731	5.92
491.082	5.88
491.433	5.78
491.784	5.79
492.135	5.85
492.485	5.93
492.836	6.02
493.187	6.26
493.537	6.35
493.888	6.49
494.239	6.63
494.589	6.72
494.94	6.78
495.29	6.79
495.641	6.78
495.991	6.74
496.341	6.73
496.692	6.72
497.042	6.85
497.392	6.93
497.742	7.01
498.092	7.17
498.442	7.28
498.793	7.4
499.143	7.48
499.493	7.63
499.842	7.74
500.192	7.93
500.542	8.06
500.892	8.17
501.242	8.23
501.591	8.32
501.941	8.38
502.291	8.47
502.64	8.64
502.99	8.79
503.339	8.95
503.689	9.12
504.038	9.27
504.388	9.4
504.737	9.55
505.086	9.63
505.436	9.66
505.785	9.74
506.134	9.94
506.483	10.12
506.832	10.27
507.181	10.51
507.53	10.67
507.879	10.75
508.228	10.88
508.577	11.05
508.926	11.19
509.275	11.31
509.624	11.44
509.972	11.55
510.321	11.69
510.67	11.85
511.018	12.01
511.367	12.18
511.715	12.36
512.064	12.57
512.412	12.79
512.761	13.01
513.109	13.23
513.457	13.48
513.806	13.66
514.154	13.8
514.502	13.99
514.85	14.23
515.198	14.34
515.546	14.46
515.894	14.66
516.242	14.81
516.59	14.9
516.938	15.1
517.286	15.27
517.634	15.37
517.981	15.45
518.329	15.6
518.677	15.77
519.024	15.95
519.372	16.16
519.72	16.42
520.067	16.66
520.415	16.89
520.762	17.04
521.109	17.22
521.457	17.39
521.804	17.49
522.151	17.63
522.498	17.89
522.846	17.97
523.193	18.11
523.54	18.2
523.887	18.28
524.234	18.32
524.581	18.52
524.928	18.52
525.275	18.58
525.621	18.66
525.968	18.72
526.315	18.85
526.662	19.04
527.008	19.25
527.355	19.3
527.701	19.3
528.048	19.18
528.394	19.12
528.741	19.15
529.087	19.32
529.434	19.54
529.78	19.81
530.126	20.13
530.472	20.39
530.819	20.55
531.165	20.61
531.511	20.63
531.857	20.63
532.203	20.63
532.549	20.54
532.895	20.47
533.241	20.41
533.586	20.38
533.932	20.44
534.278	20.6
534.624	20.74
534.969	20.96
535.315	21.16
535.661	21.19
536.006	21.09
536.352	20.99
536.697	20.91
537.042	20.88
537.388	20.99
537.733	21.13
538.078	21.28
538.424	21.41
538.769	21.46
539.114	21.43
539.459	21.33
539.804	21.27
540.149	21.16
540.494	20.98
540.839	20.83
541.184	20.73
541.529	20.75
541.873	20.83
542.218	20.95
542.563	21.09
542.908	21.29
543.252	21.38
543.597	21.44
543.941	21.5
544.286	21.55
544.63	21.59
544.975	21.58
545.319	21.47
545.663	21.39
546.007	21.37
546.352	21.29
546.696	21.25
547.04	21.33
547.384	21.37
547.728	21.42
548.072	21.5
548.416	21.68
548.76	21.76
549.104	21.78
549.448	21.85
549.791	21.89
550.135	21.89
550.479	21.99
550.823	22.09
551.166	22.04
551.51	22.04
551.853	21.91
552.197	21.82
552.54	21.75
552.883	21.68
553.227	21.7
553.57	21.76
553.913	21.83
554.257	21.94
554.6	22.07
554.943	22.13
555.286	22.11
555.629	22.04
555.972	21.91
556.315	21.83
556.658	21.71
557.001	21.75
557.343	21.69
557.686	21.77
558.029	21.73
558.371	21.89
558.714	21.96
559.057	21.95
559.399	21.9
559.742	21.91
560.084	21.73
560.427	21.49
560.769	21.41
561.111	21.26
561.453	21.19
561.796	21.11
562.138	21.11
562.48	21.1
562.822	21.14
563.164	21.1
563.506	21.05
563.848	21.06
564.19	21
564.532	20.89
564.874	20.91
565.215	20.84
565.557	20.61
565.899	20.52
566.24	20.48
566.582	20.36
566.924	20.25
567.265	20.34
567.606	20.31
567.948	20.29
568.289	20.29
568.631	20.37
568.972	20.31
569.313	20.33
569.654	20.18
569.995	20.1
570.336	19.89
570.677	19.76
571.018	19.56
571.359	19.54
571.7	19.21
572.041	19.17
572.382	19.13
572.723	19.13
573.064	19.06
573.404	19.35
573.745	19.42
574.085	19.43
574.426	19.32
574.766	19.29
575.107	18.95
575.447	18.76
575.788	18.62
576.128	18.59
576.468	18.54
576.808	18.54
577.149	18.49
577.489	18.44
577.829	18.38
578.169	18.26
578.509	18.28
578.849	18.32
579.189	18.34
579.529	18.21
579.868	18.32
580.208	18.19
580.548	18.2
580.887	18.07
581.227	17.98
581.567	17.84
581.906	17.78
582.246	17.59
582.585	17.55
582.925	17.6
583.264	17.45
583.603	17.55
583.942	17.57
584.282	17.5
584.621	17.48
584.96	17.5
585.299	17.23
585.638	17.11
585.977	17.16
586.316	17.21
586.655	17.13
586.994	17.29
587.332	17.29
587.671	17.24
588.01	17.11
588.348	17.07
588.687	16.95
589.026	16.83
589.364	16.74
589.703	16.7
590.041	16.67
590.379	16.65
590.718	16.65
591.056	16.7
591.394	16.71
591.732	16.69
592.07	16.6
592.409	16.69
592.747	16.71
593.085	16.55
593.423	16.57
593.76	16.54
594.098	16.49
594.436	16.32
594.774	16.25
595.112	16.21
595.449	16.25
595.787	16.1
596.124	16.16
596.462	16.1
596.799	15.97
597.137	15.93
597.474	15.97
597.812	15.86
598.149	16.06
598.486	16.33
598.823	16.34
599.16	16.4
599.498	16.49
599.835	16.42
600.172	16.11
600.509	16.09
600.845	15.96
601.182	15.76
601.519	15.76
601.856	15.73
602.193	15.8
602.529	15.77
602.866	15.7
603.202	15.54
603.539	15.55
603.875	15.35
604.212	15.26
604.548	15.23
604.885	15.22
605.221	15.26
605.557	15.4
605.893	15.48
606.23	15.56
606.566	15.59
606.902	15.6
607.238	15.54
607.574	15.43
607.91	15.46
608.245	15.33
608.581	15.23
608.917	15.06
609.253	14.97
609.588	14.75
609.924	14.7
610.26	14.6
610.595	14.56
610.931	14.49
611.266	14.47
611.601	14.44
611.937	14.35
612.272	14.31
612.607	14.26
612.942	14.26
613.278	14.25
613.613	14.31
613.948	14.21
614.283	14.26
614.618	14.31
614.953	14.28
615.287	14.2
615.622	14.32
615.957	14.29
616.292	14.28
616.626	14.31
616.961	14.33
617.295	14.32
617.63	14.25
617.964	14.1
618.299	13.99
618.633	13.88
618.968	13.68
619.302	13.67
619.636	13.78
619.97	13.77
620.304	13.71
620.638	13.83
620.972	13.83
621.306	13.78
621.64	13.81
621.974	13.93
622.308	13.95
622.642	14.01
622.976	13.89
623.309	13.75
623.643	13.64
623.977	13.47
624.31	13.35
624.644	13.32
624.977	13.29
625.31	13.34
625.644	13.27
625.977	13.31
626.31	13.2
626.643	13.12
626.977	12.96
627.31	13.05
627.643	12.91
627.976	12.98
628.309	13.1
628.642	13.3
628.974	13.22
629.307	13.32
629.64	13.34
629.973	13.24
630.305	13.12
630.638	13.18
630.971	13.21
631.303	13.37
631.636	13.3
631.968	13.35
632.3	13.19
632.633	13.19
632.965	12.94
633.297	13
633.629	12.9
633.961	12.91
634.293	12.88
634.625	12.89
634.957	12.98
635.289	12.96
635.621	13.14
635.953	13.11
636.285	13.17
636.617	13.06
636.948	13.07
637.28	12.93
637.611	12.82
637.943	12.75
638.274	12.65
638.606	12.67
638.937	12.52
639.269	12.56
639.6	12.47
639.931	12.36
640.262	12.17
640.593	12.31
640.924	12.2
641.255	12.28
641.586	12.3
641.917	12.26
642.248	12.03
642.579	11.92
642.91	11.53
643.24	11.45
643.571	11.29
643.902	11.25
644.232	11.16
644.563	11.16
644.893	10.98
645.224	10.95
645.554	10.75
645.884	10.64
646.215	10.53
646.545	10.24
646.875	10.07
647.205	10.15
647.535	10.15
647.865	10.18
648.195	10.27
648.525	10.23
648.855	9.99
649.185	9.99
649.515	9.69
649.844	9.52
650.174	9.52
650.504	9.42
650.833	9.23
651.163	9.25
651.492	9.28
651.822	9.08
652.151	8.99
652.48	8.9
652.81	9.03
653.139	8.99
653.468	9.12
653.797	9.25
654.126	9.19
654.455	8.98
654.784	9.08
655.113	8.94
655.442	8.71
655.771	8.57
656.099	8.61
656.428	8.31
656.757	8.34
657.085	8.59
657.414	8.66
657.742	8.54
658.071	8.62
658.399	8.56
658.728	8.18
659.056	7.88
659.384	7.99
659.712	7.97
660.04	7.85
660.369	7.88
660.697	8.09
661.025	8.1
661.353	7.94
661.68	7.97
662.008	7.98
662.336	8
662.664	7.82
662.991	7.76
663.319	7.62
663.647	7.7
663.974	7.55
664.302	7.42
664.629	7.5
664.956	7.48
665.284	7.31
665.611	7.1
665.938	7.06
666.265	6.94
666.593	6.92
666.92	6.99
667.247	6.86
667.574	6.83
667.9	6.85
668.227	6.88
668.554	6.68
668.881	6.97
669.208	6.67
669.534	6.67
669.861	6.47
670.187	6.3
670.514	6.1
670.84	6.34
671.167	6.28
671.493	6.38
671.819	6.62
672.146	6.68
672.472	6.59
672.798	6.48
673.124	6.44
673.45	6.43
673.776	6.38
674.102	6.62
674.428	6.82
674.754	7.05
675.079	7.12
675.405	7.32
675.731	7.35
676.056	7.25
676.382	7.37
676.707	7.26
677.033	7.23
677.358	7.23
677.684	7.48
678.009	7.41
678.334	7.2
678.659	7.07
678.985	6.95
679.31	6.91
679.635	6.88
679.96	7.2
680.285	7.19
680.609	7.2
680.934	7.17
681.259	7.13
681.584	7.11
681.908	7.31
682.233	7.48
682.558	7.54
682.882	7.99
683.207	8.44
683.531	8.6
683.855	8.86
684.18	9.17
684.504	8.95
684.828	9.11
685.152	9.41
685.476	9.93
685.8	10.51
686.124	10.86
686.448	10.98
686.772	11.38
687.096	11.4
687.42	11.4
687.744	11.84
688.067	12.14
688.391	12.19
688.714	12.18
689.038	12.52
689.361	12.68
689.685	12.93
690.008	13.4
690.331	14.06
690.655	14.21
690.978	14.69
691.301	15.24
691.624	15.66
691.947	16.05
692.27	16.36
692.593	16.62
692.916	16.74
693.239	16.65
693.561	17.02
693.884	17.53
694.207	17.97
694.529	18.42
694.852	19.09
695.174	19.3
695.497	19.67
695.819	20.08
696.142	20.44
696.464	20.36
696.786	20.78
697.108	20.82
697.43	20.9
697.753	20.98
698.075	21.4
698.397	21.28
698.718	21.33
699.04	21.24
699.362	21.41
699.684	21.91
700.006	22.28
700.327	22.73
700.649	23.13
700.97	23.54
701.292	23.44
701.613	23.72
701.935	23.86
702.256	24.44
702.577	24.65
702.898	24.87
703.22	25.22
703.541	25.84
703.862	26.06
704.183	26.51
704.504	26.57
704.825	26.97
705.145	26.8
705.466	26.96
705.787	26.92
706.108	27.12
706.428	27.1
706.749	27.64
707.069	27.65
707.39	27.23
707.71	27.75
708.03	27.48
708.351	27.22
708.671	27.65
708.991	27.85
709.311	27.37
709.631	27.58
709.951	27.55
710.271	27.56
710.591	28.1
710.911	28.33
711.231	28.36
711.551	28.64
711.87	28.36
712.19	28.54
712.51	28.73
712.829	29.23
713.149	29.59
713.468	29.98
713.787	29.82
714.107	29.98
714.426	29.7
714.745	29.32
715.064	29.29
715.383	29.32
715.702	29.54
716.021	29.62
716.34	30.08
716.659	30.35
716.978	30.32
717.297	30.31
717.615	30.34
717.934	30.09
718.253	30.13
718.571	30.18
718.89	30.26
719.208	30.53
719.527	30.87
719.845	30.93
720.163	31.68
720.481	31.95
720.8	32.06
721.118	32.39
721.436	32.09
721.754	32.06
722.072	31.7
722.39	31.67
722.707	31.42
723.025	31.57
723.343	31.21
723.661	31.61
723.978	31.41
724.296	31.16
724.613	31.25
724.931	31.28
725.248	31.12
725.565	31.43
725.883	31.14
726.2	31.02
726.517	31.01
726.834	31.2
727.151	31.57
727.468	32.18
727.785	32.64
728.102	32.99
728.419	33.05
728.736	32.91
729.052	33.11
729.369	32.84
729.686	32.79
730.002	32.52
730.319	32.53
730.635	32.25
730.951	32.65
731.268	32.79
731.584	32.95
731.9	33.18
732.216	32.89
732.533	32.3
732.849	32.1
733.165	32.16
733.481	31.81
733.796	32.16
734.112	32.56
734.428	32.72
734.744	32.79
735.059	33.05
735.375	32.95
735.691	33.22
736.006	33.17
736.322	33.11
736.637	32.71
736.952	32.98
737.268	32.7
737.583	32.64
737.898	32.05
738.213	32.39
738.528	32.56
738.843	33
739.158	32.83
739.473	33.47
739.788	33.95
740.102	33.58
740.417	33.44
740.732	34.09
741.046	34.27
741.361	33.37
741.675	33.79
741.99	33.43
742.304	33.34
742.618	32.99
742.933	33.71
743.247	33.41
743.561	34.08
743.875	33.86
744.189	34.2
744.503	33.85
744.817	33.53
745.131	32.7
745.445	32.36
745.758	32.05
746.072	32.31
746.386	33.55
746.699	34.1
747.013	34.35
747.326	34.34
747.64	33.72
747.953	32.95
748.266	32.46
748.58	32.21
748.893	32.34
749.206	32.71
749.519	32.73
749.832	33.25
750.145	34.11
750.458	34.25
750.771	34.86
751.083	35.01
751.396	34.71
751.709	34.22
752.021	33.92
752.334	32.9
752.646	33.7
752.959	33.73
753.271	33.81
753.584	34.4
753.896	34.45
754.208	33.72
754.52	33.78
754.832	33.38
755.144	32.97
755.456	32.85
755.768	32.72
756.08	32.59
756.392	33.08
756.704	33.33
757.015	33.64
757.327	33.76
757.638	33.98
757.95	34.13
758.261	34.2
758.573	34.09
758.884	34.12
759.195	33.96
759.507	33.1
759.818	32.63
760.129	32.88
760.44	32.46
760.751	32.39
761.062	33.02
761.373	32.6
761.684	33.04
761.994	33.15
762.305	32.79
762.616	32.48
762.926	32.81
763.237	32.67
763.547	32.84
763.858	33.15
764.168	33.6
764.478	33.75
764.789	33.51
765.099	33.72
765.409	33.54
765.719	33.22
766.029	33.56
766.339	33.87
766.649	33.75
766.959	33.74
767.269	33.5
767.578	33
767.888	33.03
768.198	32.79
768.507	32.73
768.817	32.4
769.126	32.64
769.435	32.23
769.745	32.55
770.054	31.65
770.363	32.19
770.672	32.17
770.981	32.59
771.29	32.2
771.599	31.83
771.908	31.95
772.217	32.42
772.526	32.64
772.835	32.32
773.143	33.32
773.452	33.04
773.76	31.96
774.069	31.77
774.377	33.13
774.686	33.83
774.994	34.14
775.302	33.97
775.611	33.74
775.919	33.44
776.227	34.45
776.535	34.65
776.843	34.35
777.151	34.77
777.459	34.26
777.766	33.61
778.074	32.97
778.382	34.12
778.689	34.58
778.997	33.61
779.304	33.46
779.612	35.16
779.919	34.21
780.227	33.45
780.534	33.19
780.841	33.82
781.148	32.66
781.455	33.45
781.762	31.01
782.069	32.61
782.376	31.85
782.683	32.27
782.99	31.61
783.296	35.25
783.603	34.45
783.91	34.61
784.216	33.22
784.523	34.68
784.829	35.19
785.136	36.32
785.442	35.64
785.748	35.6
786.054	33.7
786.36	32.85
786.667	32.82
786.973	33.47
787.278	33.99
787.584	34.74
787.89	33.46
788.196	32.72
788.502	31.94
788.807	32.23
789.113	33.42
789.418	34.86
789.724	33.16
790.029	34.52
790.335	34.94
790.64	34.05
790.945	33.53
791.25	35.36
791.556	34.32
791.861	34.57
792.166	35.73
792.471	35.75
792.775	38.37
793.08	38.85
793.385	39.12
793.69	37.18
793.994	36.65
794.299	34.11
794.603	34.49
794.908	34.24
795.212	35.18
795.517	33.75
795.821	34.15
796.125	34.05
796.429	32.73
796.733	32.95
797.037	32.58
797.341	32.23
797.645	32.63
797.949	34.49
798.253	35.33
798.557	35.73
798.86	36.99
799.164	37.11
799.468	35.94
799.771	35.01
800.074	37.01
800.378	35.07
800.681	34.24
800.984	34.76
801.288	32.05
801.591	30.53
801.894	31.43
802.197	32.24
802.5	32.71
802.803	35.9
803.105	37.1
803.408	36.58
803.711	34.86
804.014	32.21
804.316	31.23
804.619	30.96
804.921	32.9
805.224	31.35
805.526	35.54
805.828	36.08
806.13	34.9
806.433	32.34
806.735	36.01
807.037	34.13
807.339	34.86
807.641	37.01
807.942	38.26
808.244	40.01
808.546	40.04
808.848	39.78
809.149	38.94
809.451	38.1
809.752	36.51
810.054	36.16
810.355	37.3
810.656	38.19
810.958	39.5
811.259	37.69
811.56	37.33
811.861	35.36
812.162	36.69
812.463	32.58
812.764	34.53
813.065	34.49
813.365	33.64
813.666	33.2
813.967	37.19
814.267	36.63
814.568	37.3
814.868	37.9
815.169	35.84
815.469	34.26
815.769	33.37
816.069	33.82
816.37	33.92
816.67	33.38
816.97	36.22
817.27	36.76
817.57	38.86
817.869	38.88
818.169	40.1
818.469	38.97
818.768	38.57
819.068	38.16
819.368	39.56
819.667	39.19
819.966	37.23
820.266	37.85
820.565	37.69
820.864	35.46
821.163	35.63
821.463	36.43
821.762	35.39
822.06	33.25
822.359	34.99
822.658	34.34
822.957	34.49
823.256	34.49
823.554	34.84
823.853	34.72
824.152	34.97
824.45	35.26
824.748	35.25
825.047	35.57
825.345	36.04
825.643	36.02
825.941	35.46
826.239	36.92
826.538	38.01
826.836	36.83
827.133	35.87
827.431	36.11
827.729	34.45
828.027	32.99
828.324	33.46
828.622	33.56
828.92	34.2
829.217	34.93
829.514	35.24
829.812	34.45
830.109	35.03
830.406	34.37
830.703	33.51
831.001	31.87
831.298	32.06
831.595	33.9
831.891	31.94
832.188	36.12
832.485	40.41
832.782	44.52
833.078	43.52
833.375	44.89
833.672	38.47
833.968	36.69
834.264	35
834.561	35.4
834.857	35.81
835.153	36.63
835.449	35.24
835.746	35.28
836.042	36.77
836.338	36.73
836.633	38.57
836.929	40.28
837.225	40.29
837.521	41.25
837.816	40.74
838.112	39.81
838.408	44.24
838.703	46.03
838.998	40.17
839.294	45.9
839.589	45.32
839.884	44.67
840.179	48.84
840.474	48.34
840.77	40.28
841.064	40.41
841.359	36.05
841.654	34.03
841.949	36.21
842.244	37.53
842.538	38.03
842.833	39.71
843.127	37.89
843.422	38.63
843.716	41.95
844.011	46.85
844.305	47.16
844.599	55.49
844.893	50.26
845.187	45.08
845.481	35.3
845.775	37.38
846.069	31.57
846.363	36.52
846.657	41.86
846.95	46.05
847.244	47.58
847.537	49.75
847.831	51.12
848.124	60.69
848.418	57.12
848.711	59.18
849.004	53.21
849.297	59.47
849.591	57.38
849.884	61.04
850.177	47.96
850.47	52.01
850.762	43.33
851.055	49.1
851.348	54.45
851.641	53.27
851.933	55.15
852.226	63.32
852.518	57.41
852.811	62.99
853.103	82.6
853.395	79.06
853.687	68.09
853.98	66.75
854.272	46.1
854.564	46.19
854.856	47.65
855.148	44.24
855.439	43.31
855.731	55.25
856.023	46.96
856.314	50.78
856.606	58.05
856.898	63.23
857.189	61.77
857.48	56.44
857.772	58.42
858.063	47.14
858.354	38.62
858.645	39.95
858.936	47.65
859.227	39.48
859.518	55.35
859.809	55.59
860.1	52.72
860.391	48.54
860.681	55.68
860.972	49.94
861.262	52.66
861.553	50.47
861.843	60.22
862.134	62.68
862.424	71.87
862.714	80.1
863.004	84.21
863.294	90.65
863.584	74.45
863.874	56.71
864.164	52.67
864.454	72.36
864.744	63.86
865.034	90.3
865.323	118.05
865.613	110.78
865.902	65.9
866.192	59
866.481	75.14
866.77	95.02
867.06	64.52
867.349	95.84
867.638	104.92
867.927	112.22
868.216	74.91
868.505	83.62
868.794	76.81
869.082	58.47
869.371	44.28
869.66	62.63
869.948	62.69
870.237	50.16
870.525	57.54
870.814	59.6
871.102	36.38
871.39	62.46
871.678	94.52
871.967	84.39
872.255	78.24
872.543	94.65
872.831	82.79
873.118	62.4
873.406	63.95
873.694	48.61
873.982	24.01
874.269	2.93
874.557	-17.99
874.844	-14.46
875.132	-13.48
875.419	-20.94
