Data from Psra-i2_Reflection_16-32-54-300.txt Node
Date: Tue Aug 16 16:32:54 CEST 2022
User: IDIV
Spectrometer: FLMS14958
Trigger mode: 0
Integration Time (sec): 1.000000E-1
Scans to average: 10
Electric dark correction enabled: true
Nonlinearity correction enabled: true
Boxcar width: 2
XAxis mode: Wavelengths
Number of Pixels in Spectrum: 2048
>>>>>Begin Spectral Data<<<<<
179.491	-38.72
179.869	-40.65
180.247	-25.2
180.625	-37.33
181.003	-26.71
181.381	32.47
181.759	-130.27
182.136	1.5
182.514	-10.3
182.892	43.22
183.27	-562.16
183.647	56.74
184.025	49.04
184.403	37.6
184.78	69.32
185.158	39.69
185.536	-40.16
185.913	-27662.63
186.291	201.3
186.668	163.06
187.046	1861.75
187.423	654.67
187.801	112.16
188.178	79.63
188.556	48.09
188.933	22.9
189.31	12.03
189.688	9.44
190.065	0.83
190.442	2.94
190.82	11.31
191.197	8.34
191.574	9.28
191.951	6.54
192.329	15.43
192.706	6.26
193.083	12.97
193.46	22.52
193.837	29.62
194.214	10.33
194.591	13.37
194.968	8.29
195.345	-10.12
195.722	-2.26
196.099	8.23
196.476	5.3
196.853	8.14
197.23	16.5
197.607	13.92
197.984	13.68
198.36	24
198.737	23.99
199.114	26.81
199.491	16.59
199.867	23.5
200.244	7.93
200.621	14.08
200.997	6.77
201.374	6.36
201.75	-0.27
202.127	6.14
202.504	-4.99
202.88	-0.94
203.257	2.31
203.633	-7.9
204.01	6.09
204.386	23.04
204.762	25.9
205.139	26.14
205.515	27.45
205.891	22.7
206.268	13.8
206.644	11.53
207.02	15.88
207.396	21.83
207.773	26.75
208.149	26.41
208.525	25.94
208.901	22
209.277	20.65
209.653	18.51
210.029	22.95
210.405	17.04
210.781	17.2
211.157	26.29
211.533	25.65
211.909	18.71
212.285	19.07
212.661	19.78
213.037	17.99
213.413	8.12
213.789	19.27
214.164	23.12
214.54	23.71
214.916	12.26
215.292	23.34
215.667	19.32
216.043	19.85
216.419	15.65
216.794	19.87
217.17	8.2
217.545	2.59
217.921	-6.58
218.296	-7
218.672	1.55
219.047	13.16
219.423	18.88
219.798	32.05
220.174	34.48
220.549	31.6
220.924	22.27
221.3	14.08
221.675	6.99
222.05	9.07
222.425	1.22
222.801	8.54
223.176	10.02
223.551	12.4
223.926	15.68
224.301	16.77
224.676	18.59
225.051	24.98
225.426	19.97
225.801	16.89
226.176	17.74
226.551	13
226.926	6.51
227.301	6.35
227.676	4.53
228.051	5.7
228.426	4.79
228.801	2.81
229.175	2.67
229.55	2.36
229.925	1.74
230.3	0.89
230.674	1.84
231.049	2.2
231.424	2.28
231.798	2.51
232.173	3.81
232.547	3.67
232.922	3.52
233.296	4.81
233.671	3.71
234.045	3.98
234.42	4.65
234.794	3.79
235.168	3.24
235.543	3.46
235.917	2.7
236.291	2.2
236.666	1.85
237.04	2.09
237.414	1.45
237.788	1.43
238.162	1.72
238.537	2.66
238.911	2.95
239.285	3.24
239.659	3.95
240.033	2.65
240.407	2.22
240.781	1.73
241.155	1.55
241.529	1.22
241.903	1.36
242.277	0.8
242.65	0.5
243.024	0.38
243.398	0.26
243.772	0.29
244.146	0.75
244.519	0.73
244.893	0.66
245.267	0.79
245.64	0.56
246.014	0.1
246.387	0.19
246.761	0.14
247.135	-0.07
247.508	-0
247.882	0.09
248.255	0.1
248.628	0.13
249.002	0.23
249.375	0.24
249.749	0.15
250.122	0.25
250.495	0.29
250.868	0.27
251.242	0.12
251.615	0.14
251.988	0.1
252.361	0.34
252.734	0.5
253.107	0.7
253.481	0.88
253.854	0.8
254.227	0.71
254.6	0.52
254.973	0.34
255.346	0.14
255.718	0.13
256.091	0.35
256.464	0.29
256.837	0.55
257.21	0.64
257.583	0.86
257.955	0.57
258.328	0.65
258.701	0.48
259.074	0.2
259.446	0.02
259.819	0.04
260.191	-0.09
260.564	-0.05
260.936	-0.09
261.309	-0.07
261.681	-0.16
262.054	-0.07
262.426	-0.02
262.799	0.26
263.171	0.27
263.543	0.42
263.916	0.41
264.288	-0.01
264.66	-0.26
265.033	-0.29
265.405	-0.07
265.777	-0.15
266.149	0.13
266.521	0.35
266.893	0.48
267.265	0.43
267.637	0.7
268.009	0.72
268.381	0.68
268.753	0.43
269.125	0.4
269.497	0.13
269.869	0.03
270.241	-0.2
270.613	-0.16
270.985	-0.19
271.356	-0.15
271.728	-0.04
272.1	0.26
272.471	0.47
272.843	0.36
273.215	0.54
273.586	0.55
273.958	0.66
274.329	0.54
274.701	0.65
275.072	0.45
275.444	0.59
275.815	0.44
276.187	0.72
276.558	0.82
276.929	1.03
277.301	0.77
277.672	0.64
278.043	0.4
278.415	0.36
278.786	0.07
279.157	-0.2
279.528	-0.18
279.899	0.08
280.27	0.26
280.641	0.51
281.012	0.95
281.383	1.07
281.754	1.11
282.125	0.85
282.496	0.76
282.867	0.53
283.238	0.17
283.609	-0.06
283.98	0.11
284.35	-0.01
284.721	0.23
285.092	0.39
285.462	0.27
285.833	0.19
286.204	0.3
286.574	0.22
286.945	0.2
287.315	0.23
287.686	0.24
288.056	0.04
288.427	0.04
288.797	0.1
289.168	0.07
289.538	0.06
289.908	0.32
290.279	0.4
290.649	0.46
291.019	0.49
291.39	0.35
291.76	0.19
292.13	-0.06
292.5	-0.14
292.87	-0.25
293.24	-0.02
293.61	-0.05
293.98	0.25
294.35	0.26
294.72	0.58
295.09	0.54
295.46	0.78
295.83	0.41
296.2	0.28
296.57	0.33
296.939	0.03
297.309	-0.05
297.679	0.05
298.049	-0.04
298.418	-0.24
298.788	0.05
299.158	0.03
299.527	0.16
299.897	0.42
300.266	0.62
300.636	0.74
301.005	0.68
301.375	0.44
301.744	0.55
302.113	0.43
302.483	0.29
302.852	0.5
303.221	0.66
303.591	0.63
303.96	0.77
304.329	0.69
304.698	0.66
305.067	0.4
305.436	0.42
305.806	0.28
306.175	0.24
306.544	0.2
306.913	0.42
307.282	0.2
307.65	0.37
308.019	0.51
308.388	0.32
308.757	0.47
309.126	0.55
309.495	0.22
309.863	0.12
310.232	0.15
310.601	0.09
310.969	-0.02
311.338	0.04
311.707	0
312.075	0.13
312.444	0.13
312.812	0.17
313.181	0.42
313.549	0.41
313.918	0.21
314.286	0.07
314.654	0.18
315.023	0.21
315.391	0.17
315.759	0.55
316.127	0.74
316.496	1.02
316.864	0.69
317.232	0.92
317.6	0.7
317.968	0.71
318.336	0.31
318.704	0.22
319.072	0.3
319.44	0.15
319.808	-0.12
320.176	-0.12
320.544	0.11
320.912	-0.09
321.28	0.27
321.647	0.43
322.015	0.43
322.383	0.39
322.75	0.63
323.118	0.59
323.486	0.74
323.853	0.79
324.221	0.71
324.588	0.55
324.956	0.2
325.323	-0.14
325.691	-0.15
326.058	0
326.426	0.05
326.793	0.32
327.16	0.78
327.528	0.88
327.895	0.83
328.262	0.88
328.629	0.74
328.996	0.49
329.363	0.51
329.731	0.86
330.098	0.81
330.465	0.91
330.832	1.13
331.199	1.08
331.566	0.86
331.932	0.9
332.299	0.74
332.666	0.51
333.033	0.44
333.4	0.4
333.766	0.38
334.133	0.39
334.5	0.37
334.867	0.55
335.233	0.34
335.6	0.38
335.966	0.43
336.333	0.42
336.699	0.37
337.066	0.38
337.432	0.29
337.799	0.19
338.165	0.37
338.531	0.33
338.898	0.38
339.264	0.13
339.63	0.1
339.996	-0.04
340.363	-0.2
340.729	-0.13
341.095	0.23
341.461	0.36
341.827	0.34
342.193	0.39
342.559	0.33
342.925	0.31
343.291	0.29
343.657	0.21
344.023	0.12
344.388	0.33
344.754	0.27
345.12	0.53
345.486	0.68
345.851	0.78
346.217	0.73
346.583	0.65
346.948	0.64
347.314	0.5
347.679	0.24
348.045	0.11
348.41	0.13
348.776	0.05
349.141	0.24
349.507	0.52
349.872	0.42
350.237	0.51
350.603	0.4
350.968	0.4
351.333	0.43
351.698	0.45
352.063	0.38
352.428	0.64
352.794	0.43
353.159	0.32
353.524	0.4
353.889	0.4
354.254	0.23
354.618	0.42
354.983	0.55
355.348	0.5
355.713	0.42
356.078	0.41
356.443	0.38
356.807	0.26
357.172	0.25
357.537	0.33
357.901	0.18
358.266	0.11
358.63	0.16
358.995	0.18
359.359	0.13
359.724	0.07
360.088	0.22
360.453	0.3
360.817	0.24
361.181	0.19
361.546	0.23
361.91	0.15
362.274	0.1
362.638	0.26
363.003	0.39
363.367	0.56
363.731	0.5
364.095	0.56
364.459	0.41
364.823	0.35
365.187	0.24
365.551	0.27
365.915	0.2
366.279	0.21
366.642	0.19
367.006	0.32
367.37	0.31
367.734	0.44
368.097	0.43
368.461	0.51
368.825	0.48
369.188	0.64
369.552	0.53
369.915	0.71
370.279	0.81
370.642	0.73
371.006	0.47
371.369	0.5
371.732	0.45
372.096	0.32
372.459	0.24
372.822	0.35
373.186	0.32
373.549	0.44
373.912	0.61
374.275	0.7
374.638	0.85
375.001	0.86
375.364	0.87
375.727	0.78
376.09	0.76
376.453	0.62
376.816	0.59
377.179	0.44
377.542	0.46
377.904	0.61
378.267	0.71
378.63	0.71
378.993	0.86
379.355	0.93
379.718	0.83
380.08	0.8
380.443	0.83
380.806	0.75
381.168	0.68
381.53	0.83
381.893	1.03
382.255	1.2
382.618	1.25
382.98	1.33
383.342	1.3
383.704	1.26
384.067	1.26
384.429	1.32
384.791	1.44
385.153	1.54
385.515	1.56
385.877	1.64
386.239	1.53
386.601	1.43
386.963	1.36
387.325	1.28
387.687	1.34
388.049	1.61
388.41	1.8
388.772	1.88
389.134	2.05
389.496	1.98
389.857	2.08
390.219	2.09
390.58	2.16
390.942	2.12
391.303	2.3
391.665	2.17
392.026	2.19
392.388	2.24
392.749	2.3
393.111	2.24
393.472	2.35
393.833	2.44
394.194	2.52
394.556	2.62
394.917	2.68
395.278	2.84
395.639	2.96
396	3
396.361	3.09
396.722	3.1
397.083	3.08
397.444	3.04
397.805	3.13
398.166	3.11
398.526	3.2
398.887	3.18
399.248	3.3
399.609	3.3
399.969	3.38
400.33	3.45
400.691	3.54
401.051	3.52
401.412	3.6
401.772	3.79
402.133	3.84
402.493	3.91
402.853	3.98
403.214	4.02
403.574	4
403.934	4.02
404.295	4.17
404.655	4.12
405.015	4.16
405.375	4.18
405.735	4.22
406.095	4.02
406.455	4.18
406.815	4.22
407.175	4.29
407.535	4.42
407.895	4.72
408.255	4.67
408.615	4.73
408.975	4.75
409.334	4.66
409.694	4.6
410.054	4.76
410.413	4.76
410.773	4.83
411.133	4.94
411.492	4.97
411.852	4.96
412.211	5.13
412.571	5.13
412.93	5.16
413.289	5.26
413.649	5.27
414.008	5.23
414.367	5.26
414.726	5.29
415.086	5.17
415.445	5.26
415.804	5.3
416.163	5.34
416.522	5.38
416.881	5.52
417.24	5.48
417.599	5.54
417.958	5.56
418.316	5.66
418.675	5.64
419.034	5.64
419.393	5.63
419.751	5.68
420.11	5.69
420.469	5.7
420.827	5.77
421.186	5.78
421.544	5.78
421.903	5.76
422.261	5.78
422.62	5.81
422.978	5.85
423.336	5.88
423.695	5.92
424.053	5.95
424.411	5.95
424.769	5.91
425.128	5.98
425.486	5.97
425.844	6.02
426.202	6.05
426.56	6.13
426.918	6.11
427.276	6.16
427.634	6.17
427.991	6.22
428.349	6.19
428.707	6.15
429.065	6.13
429.423	6.11
429.78	6.16
430.138	6.22
430.495	6.29
430.853	6.33
431.211	6.4
431.568	6.41
431.925	6.42
432.283	6.32
432.64	6.31
432.998	6.34
433.355	6.31
433.712	6.32
434.069	6.36
434.427	6.39
434.784	6.41
435.141	6.46
435.498	6.51
435.855	6.57
436.212	6.63
436.569	6.56
436.926	6.6
437.283	6.59
437.64	6.6
437.996	6.6
438.353	6.57
438.71	6.46
439.067	6.53
439.423	6.54
439.78	6.55
440.137	6.63
440.493	6.72
440.85	6.77
441.206	6.8
441.563	6.86
441.919	6.87
442.275	6.9
442.632	6.92
442.988	6.94
443.344	6.88
443.7	6.92
444.057	6.9
444.413	6.83
444.769	6.83
445.125	6.86
445.481	6.86
445.837	6.91
446.193	6.92
446.549	6.98
446.905	7
447.26	7.06
447.616	7.07
447.972	7.08
448.328	7.07
448.683	7.12
449.039	7.12
449.395	7.11
449.75	7.11
450.106	7.15
450.461	7.13
450.817	7.19
451.172	7.27
451.527	7.29
451.883	7.32
452.238	7.35
452.593	7.33
452.949	7.3
453.304	7.36
453.659	7.28
454.014	7.23
454.369	7.19
454.724	7.23
455.079	7.24
455.434	7.32
455.789	7.33
456.144	7.38
456.499	7.43
456.853	7.48
457.208	7.39
457.563	7.43
457.918	7.39
458.272	7.29
458.627	7.19
458.981	7.19
459.336	7.18
459.69	7.21
460.045	7.23
460.399	7.26
460.754	7.29
461.108	7.33
461.462	7.32
461.817	7.31
462.171	7.33
462.525	7.35
462.879	7.38
463.233	7.44
463.587	7.44
463.941	7.46
464.295	7.49
464.649	7.43
465.003	7.42
465.357	7.42
465.711	7.43
466.065	7.35
466.418	7.41
466.772	7.33
467.126	7.34
467.479	7.31
467.833	7.34
468.186	7.33
468.54	7.39
468.893	7.46
469.247	7.45
469.6	7.49
469.954	7.4
470.307	7.36
470.66	7.37
471.013	7.43
471.367	7.37
471.72	7.39
472.073	7.42
472.426	7.36
472.779	7.32
473.132	7.33
473.485	7.36
473.838	7.33
474.191	7.29
474.544	7.29
474.896	7.32
475.249	7.33
475.602	7.3
475.955	7.28
476.307	7.22
476.66	7.23
477.012	7.28
477.365	7.3
477.717	7.25
478.07	7.24
478.422	7.22
478.775	7.1
479.127	7.11
479.479	7.13
479.831	7.13
480.184	7.11
480.536	7.19
480.888	7.12
481.24	7.13
481.592	7.12
481.944	7.12
482.296	7.05
482.648	7.07
483	7.05
483.352	7.04
483.703	7.02
484.055	7.05
484.407	7.1
484.759	7.15
485.11	7.19
485.462	7.26
485.813	7.28
486.165	7.24
486.516	7.19
486.868	7.13
487.219	7.07
487.571	7.07
487.922	7.04
488.273	7.07
488.624	7.09
488.976	7.11
489.327	7.08
489.678	7.09
490.029	7.08
490.38	7.06
490.731	7.01
491.082	7
491.433	6.96
491.784	6.95
492.135	6.95
492.485	7.02
492.836	7.03
493.187	7.08
493.537	7.11
493.888	7.14
494.239	7.06
494.589	7.12
494.94	7.1
495.29	7.02
495.641	6.99
495.991	6.96
496.341	6.89
496.692	6.94
497.042	6.98
497.392	6.97
497.742	7.02
498.092	7.06
498.442	7.05
498.793	7.09
499.143	7.12
499.493	7.15
499.842	7.16
500.192	7.14
500.542	7.14
500.892	7.07
501.242	7.04
501.591	7
501.941	6.98
502.291	6.96
502.64	6.98
502.99	7.01
503.339	7.08
503.689	7.08
504.038	7.12
504.388	7.15
504.737	7.18
505.086	7.12
505.436	7.07
505.785	7.07
506.134	7.05
506.483	7.03
506.832	6.99
507.181	7.07
507.53	7.03
507.879	7.06
508.228	7.05
508.577	7.05
508.926	7.01
509.275	7.02
509.624	7
509.972	7.02
510.321	7.03
510.67	7.05
511.018	6.98
511.367	6.97
511.715	6.92
512.064	6.94
512.412	6.88
512.761	6.88
513.109	6.89
513.457	6.9
513.806	6.87
514.154	6.87
514.502	6.89
514.85	6.88
515.198	6.89
515.546	6.87
515.894	6.84
516.242	6.86
516.59	6.85
516.938	6.85
517.286	6.83
517.634	6.87
517.981	6.85
518.329	6.84
518.677	6.83
519.024	6.85
519.372	6.87
519.72	6.9
520.067	6.95
520.415	6.97
520.762	7
521.109	6.95
521.457	6.91
521.804	6.84
522.151	6.85
522.498	6.78
522.846	6.77
523.193	6.75
523.54	6.74
523.887	6.73
524.234	6.8
524.581	6.82
524.928	6.81
525.275	6.8
525.621	6.74
525.968	6.73
526.315	6.76
526.662	6.75
527.008	6.75
527.355	6.75
527.701	6.7
528.048	6.62
528.394	6.6
528.741	6.59
529.087	6.62
529.434	6.65
529.78	6.7
530.126	6.75
530.472	6.76
530.819	6.76
531.165	6.78
531.511	6.75
531.857	6.71
532.203	6.71
532.549	6.66
532.895	6.62
533.241	6.57
533.586	6.61
533.932	6.66
534.278	6.69
534.624	6.71
534.969	6.8
535.315	6.81
535.661	6.79
536.006	6.78
536.352	6.75
536.697	6.71
537.042	6.69
537.388	6.69
537.733	6.72
538.078	6.8
538.424	6.81
538.769	6.89
539.114	6.87
539.459	6.83
539.804	6.75
540.149	6.73
540.494	6.62
540.839	6.61
541.184	6.59
541.529	6.59
541.873	6.65
542.218	6.67
542.563	6.72
542.908	6.73
543.252	6.8
543.597	6.76
543.941	6.75
544.286	6.79
544.63	6.8
544.975	6.77
545.319	6.8
545.663	6.84
546.007	6.79
546.352	6.82
546.696	6.83
547.04	6.85
547.384	6.86
547.728	6.85
548.072	6.84
548.416	6.85
548.76	6.82
549.104	6.79
549.448	6.86
549.791	6.91
550.135	6.85
550.479	6.93
550.823	6.98
551.166	6.91
551.51	6.97
551.853	6.97
552.197	6.92
552.54	6.87
552.883	6.91
553.227	6.85
553.57	6.91
553.913	6.86
554.257	6.88
554.6	6.91
554.943	6.96
555.286	6.97
555.629	7
555.972	7.01
556.315	6.96
556.658	6.9
557.001	6.87
557.343	7.02
557.686	7.02
558.029	7.1
558.371	7.16
558.714	7.2
559.057	7.09
559.399	7.14
559.742	7.09
560.084	7.04
560.427	7
560.769	6.99
561.111	6.92
561.453	6.92
561.796	6.96
562.138	6.93
562.48	6.88
562.822	6.94
563.164	6.95
563.506	6.92
563.848	6.99
564.19	7.04
564.532	7.02
564.874	6.99
565.215	6.96
565.557	6.94
565.899	6.93
566.24	6.91
566.582	6.95
566.924	7.02
567.265	7.02
567.606	7.09
567.948	7.17
568.289	7.19
568.631	7.1
568.972	7.12
569.313	7.13
569.654	7.14
569.995	7.17
570.336	7.26
570.677	7.33
571.018	7.33
571.359	7.37
571.7	7.37
572.041	7.39
572.382	7.33
572.723	7.31
573.064	7.25
573.404	7.29
573.745	7.35
574.085	7.31
574.426	7.36
574.766	7.39
575.107	7.36
575.447	7.25
575.788	7.35
576.128	7.36
576.468	7.4
576.808	7.47
577.149	7.57
577.489	7.56
577.829	7.57
578.169	7.68
578.509	7.61
578.849	7.63
579.189	7.61
579.529	7.67
579.868	7.64
580.208	7.67
580.548	7.68
580.887	7.74
581.227	7.76
581.567	7.69
581.906	7.74
582.246	7.69
582.585	7.62
582.925	7.64
583.264	7.71
583.603	7.77
583.942	7.85
584.282	7.98
584.621	7.94
584.96	7.93
585.299	7.91
585.638	7.88
585.977	7.81
586.316	7.83
586.655	7.84
586.994	7.84
587.332	7.84
587.671	8
588.01	7.97
588.348	7.97
588.687	8.08
589.026	8.15
589.364	8.04
589.703	8.02
590.041	8.03
590.379	7.99
590.718	7.98
591.056	7.97
591.394	7.99
591.732	8.05
592.07	8.03
592.409	8.08
592.747	8.1
593.085	8.14
593.423	8.09
593.76	8.1
594.098	8.06
594.436	8.14
594.774	8.22
595.112	8.24
595.449	8.2
595.787	8.25
596.124	8.21
596.462	8.11
596.799	8.12
597.137	8.13
597.474	8.16
597.812	8.21
598.149	8.29
598.486	8.31
598.823	8.41
599.16	8.31
599.498	8.33
599.835	8.31
600.172	8.27
600.509	8.21
600.845	8.4
601.182	8.36
601.519	8.39
601.856	8.42
602.193	8.41
602.529	8.2
602.866	8.26
603.202	8.27
603.539	8.33
603.875	8.34
604.212	8.35
604.548	8.31
604.885	8.27
605.221	8.28
605.557	8.29
605.893	8.34
606.23	8.4
606.566	8.47
606.902	8.37
607.238	8.43
607.574	8.48
607.91	8.46
608.245	8.41
608.581	8.42
608.917	8.33
609.253	8.33
609.588	8.27
609.924	8.31
610.26	8.4
610.595	8.5
610.931	8.62
611.266	8.71
611.601	8.75
611.937	8.75
612.272	8.66
612.607	8.59
612.942	8.57
613.278	8.62
613.613	8.6
613.948	8.6
614.283	8.49
614.618	8.45
614.953	8.38
615.287	8.43
615.622	8.47
615.957	8.55
616.292	8.67
616.626	8.74
616.961	8.71
617.295	8.72
617.63	8.72
617.964	8.6
618.299	8.59
618.633	8.69
618.968	8.57
619.302	8.62
619.636	8.66
619.97	8.59
620.304	8.54
620.638	8.59
620.972	8.54
621.306	8.59
621.64	8.71
621.974	8.73
622.308	8.74
622.642	8.7
622.976	8.75
623.309	8.83
623.643	8.78
623.977	8.79
624.31	8.81
624.644	8.61
624.977	8.54
625.31	8.46
625.644	8.5
625.977	8.44
626.31	8.51
626.643	8.52
626.977	8.53
627.31	8.49
627.643	8.52
627.976	8.54
628.309	8.57
628.642	8.67
628.974	8.77
629.307	8.83
629.64	8.91
629.973	8.84
630.305	8.85
630.638	8.76
630.971	8.77
631.303	8.62
631.636	8.61
631.968	8.46
632.3	8.38
632.633	8.19
632.965	8.3
633.297	8.31
633.629	8.39
633.961	8.53
634.293	8.71
634.625	8.53
634.957	8.46
635.289	8.45
635.621	8.28
635.953	8.24
636.285	8.41
636.617	8.41
636.948	8.47
637.28	8.53
637.611	8.58
637.943	8.52
638.274	8.58
638.606	8.49
638.937	8.53
639.269	8.42
639.6	8.54
639.931	8.46
640.262	8.51
640.593	8.5
640.924	8.61
641.255	8.45
641.586	8.51
641.917	8.49
642.248	8.48
642.579	8.45
642.91	8.65
643.24	8.64
643.571	8.51
643.902	8.48
644.232	8.46
644.563	8.28
644.893	8.36
645.224	8.61
645.554	8.72
645.884	8.73
646.215	8.75
646.545	8.57
646.875	8.33
647.205	8.19
647.535	8.13
647.865	8
648.195	8.24
648.525	8.3
648.855	8.27
649.185	8.45
649.515	8.56
649.844	8.32
650.174	8.35
650.504	8.45
650.833	8.33
651.163	8.34
651.492	8.53
651.822	8.55
652.151	8.57
652.48	8.59
652.81	8.57
653.139	8.38
653.468	8.44
653.797	8.41
654.126	8.46
654.455	8.46
654.784	8.47
655.113	8.34
655.442	8.31
655.771	8.38
656.099	8.35
656.428	8.34
656.757	8.47
657.085	8.44
657.414	8.33
657.742	8.45
658.071	8.5
658.399	8.37
658.728	8.24
659.056	8.26
659.384	8.19
659.712	8.29
660.04	8.13
660.369	8.32
660.697	8.24
661.025	8.31
661.353	8.16
661.68	8.35
662.008	8.4
662.336	8.45
662.664	8.43
662.991	8.51
663.319	8.42
663.647	8.27
663.974	8.24
664.302	8.23
664.629	8.13
664.956	8.22
665.284	8.47
665.611	8.35
665.938	8.18
666.265	8.24
666.593	8.09
666.92	7.7
667.247	7.81
667.574	8.08
667.9	8.11
668.227	8.24
668.554	8.37
668.881	8.21
669.208	7.9
669.534	7.96
669.861	7.94
670.187	7.77
670.514	7.81
670.84	7.92
671.167	7.72
671.493	7.71
671.819	7.96
672.146	8.22
672.472	7.94
672.798	7.92
673.124	7.95
673.45	7.81
673.776	7.75
674.102	7.81
674.428	7.91
674.754	7.85
675.079	7.97
675.405	7.84
675.731	8.03
676.056	8.18
676.382	8.31
676.707	8.38
677.033	8.36
677.358	8.51
677.684	8.34
678.009	8.43
678.334	8.47
678.659	8.43
678.985	8.2
679.31	8.37
679.635	8.15
679.96	7.97
680.285	8.03
680.609	8.13
680.934	8.05
681.259	8.18
681.584	8.37
681.908	8.35
682.233	8.44
682.558	8.45
682.882	8.35
683.207	8.26
683.531	8.3
683.855	8.36
684.18	8.26
684.504	8.55
684.828	8.6
685.152	8.43
685.476	8.15
685.8	8.27
686.124	8.04
686.448	8.05
686.772	8.4
687.096	8.53
687.42	8.3
687.744	8.28
688.067	8.26
688.391	8.21
688.714	8.24
689.038	8.49
689.361	8.74
689.685	8.7
690.008	8.55
690.331	8.6
690.655	8.47
690.978	8.12
691.301	8.19
691.624	8.45
691.947	8.5
692.27	8.6
692.593	8.92
692.916	8.81
693.239	8.56
693.561	8.51
693.884	8.4
694.207	8.15
694.529	8.14
694.852	8.24
695.174	8.25
695.497	8.28
695.819	8.25
696.142	8.32
696.464	8.31
696.786	8.15
697.108	8.51
697.43	8.54
697.753	8.45
698.075	8.51
698.397	8.66
698.718	8.41
699.04	8.48
699.362	8.52
699.684	8.39
700.006	8.33
700.327	8.38
700.649	8.32
700.97	8.48
701.292	8.42
701.613	8.44
701.935	8.4
702.256	8.31
702.577	8.27
702.898	8.42
703.22	8.53
703.541	8.72
703.862	8.91
704.183	8.95
704.504	9.09
704.825	8.73
705.145	8.66
705.466	8.85
705.787	8.75
706.108	8.57
706.428	8.63
706.749	8.51
707.069	8.23
707.39	7.93
707.71	8.27
708.03	8.36
708.351	8.44
708.671	8.59
708.991	9.07
709.311	8.92
709.631	8.73
709.951	8.95
710.271	9.18
710.591	8.87
710.911	9.29
711.231	9.45
711.551	9.43
711.87	9.34
712.19	9.57
712.51	9.11
712.829	9.27
713.149	8.92
713.468	8.69
713.787	8.25
714.107	8.19
714.426	7.95
714.745	7.9
715.064	7.76
715.383	7.95
715.702	7.95
716.021	8.25
716.34	8.24
716.659	8.32
716.978	8.38
717.297	8.6
717.615	8.51
717.934	8.43
718.253	8.73
718.571	8.31
718.89	8.25
719.208	8.3
719.527	8.58
719.845	8.33
720.163	8.84
720.481	8.88
720.8	8.47
721.118	8.58
721.436	8.82
721.754	8.79
722.072	8.77
722.39	8.78
722.707	8.24
723.025	8.07
723.343	7.91
723.661	7.51
723.978	7.82
724.296	8.01
724.613	8.26
724.931	8.69
725.248	9.37
725.565	9.54
725.883	9.76
726.2	9.47
726.517	9.34
726.834	9.35
727.151	9.07
727.468	8.94
727.785	9.01
728.102	9.33
728.419	9
728.736	8.81
729.052	9.05
729.369	8.83
729.686	7.96
730.002	7.81
730.319	8.19
730.635	8.01
730.951	8.29
731.268	8.32
731.584	8.47
731.9	7.93
732.216	7.84
732.533	8.05
732.849	8.71
733.165	8.78
733.481	9.11
733.796	9.2
734.112	9.19
734.428	9.16
734.744	8.87
735.059	8.9
735.375	9.04
735.691	8.95
736.006	8.59
736.322	8.69
736.637	8.89
736.952	8.58
737.268	8.37
737.583	8.57
737.898	8.28
738.213	8.07
738.528	8.62
738.843	8.55
739.158	8.63
739.473	9.07
739.788	9.37
740.102	9.37
740.417	9.31
740.732	9.11
741.046	9.3
741.361	9.3
741.675	9.47
741.99	9.63
742.304	9.81
742.618	9.54
742.933	10.21
743.247	9.87
743.561	9.99
743.875	10.09
744.189	10.04
744.503	9.53
744.817	9.33
745.131	9.61
745.445	9.61
745.758	9.99
746.072	10.07
746.386	9.63
746.699	10.05
747.013	9.91
747.326	9.74
747.64	8.91
747.953	9.6
748.266	8.81
748.58	9.02
748.893	9.01
749.206	9.52
749.519	8.65
749.832	8.92
750.145	8.15
750.458	8.09
750.771	7.56
751.083	8.53
751.396	7.87
751.709	8.55
752.021	8.7
752.334	8.49
752.646	8.26
752.959	8.84
753.271	8.47
753.584	7.86
753.896	8.8
754.208	8.92
754.52	8.25
754.832	8.58
755.144	9.15
755.456	9.21
755.768	9.22
756.08	10.17
756.392	9.4
756.704	8.94
757.015	8.81
757.327	8.42
757.638	7.96
757.95	8.44
758.261	8.74
758.573	8.4
758.884	8.88
759.195	9.27
759.507	9.2
759.818	9.15
760.129	9.57
760.44	9.5
760.751	9.08
761.062	9.56
761.373	9.77
761.684	9.18
761.994	8.92
762.305	9.37
762.616	8.95
762.926	9.02
763.237	8.97
763.547	8.84
763.858	8
764.168	8.2
764.478	8.35
764.789	8.34
765.099	8.39
765.409	9.09
765.719	9.18
766.029	8.83
766.339	9.22
766.649	9.29
766.959	8.99
767.269	8.82
767.578	8.89
767.888	8.23
768.198	7.68
768.507	8.43
768.817	9.24
769.126	9.01
769.435	9.39
769.745	9.81
770.054	9.08
770.363	9.54
770.672	9.01
770.981	9.09
771.29	9.24
771.599	9.5
771.908	7.35
772.217	8.13
772.526	7.97
772.835	8.99
773.143	9.12
773.452	10.06
773.76	9.56
774.069	10.08
774.377	9.81
774.686	9.22
774.994	9.08
775.302	8.57
775.611	8.96
775.919	7.47
776.227	7.02
776.535	6.89
776.843	7.69
777.151	7.32
777.459	8.67
777.766	10.48
778.074	10.72
778.382	11.22
778.689	10.9
778.997	11.37
779.304	10.2
779.612	9.58
779.919	9.71
780.227	10.71
780.534	10.25
780.841	10.75
781.148	11.8
781.455	11
781.762	10.48
782.069	10.2
782.376	10.97
782.683	10.81
782.99	12.06
783.296	12.91
783.603	13.08
783.91	11.56
784.216	11.62
784.523	12.31
784.829	12.02
785.136	12.52
785.442	13.47
785.748	13.68
786.054	11.42
786.36	11.37
786.667	9.96
786.973	9.63
787.278	9.24
787.584	9.97
787.89	10.82
788.196	11.56
788.502	11.8
788.807	11.27
789.113	11.53
789.418	9.6
789.724	10.09
790.029	10.54
790.335	10.65
790.64	9.13
790.945	10.27
791.25	9.85
791.556	8.49
791.861	7.98
792.166	9.63
792.471	9.46
792.775	7.32
793.08	8.88
793.385	10.25
793.69	10.33
793.994	10.08
794.299	12.09
794.603	11.79
794.908	11.43
795.212	10.4
795.517	10.8
795.821	12.06
796.125	12.27
796.429	10.43
796.733	10.02
797.037	8.8
797.341	7.55
797.645	6.86
797.949	8.79
798.253	10.28
798.557	11.85
798.86	11.15
799.164	10.86
799.468	9.88
799.771	8.75
800.074	9.04
800.378	10.41
800.681	10.9
800.984	12.44
801.288	12.95
801.591	11.63
801.894	12.24
802.197	10.63
802.5	9.49
802.803	9.46
803.105	9.79
803.408	9.16
803.711	12.69
804.014	13.53
804.316	14.24
804.619	15.88
804.921	16.61
805.224	14.58
805.526	13.48
805.828	13.44
806.13	12.54
806.433	11.06
806.735	9.35
807.037	9.73
807.339	8.06
807.641	8.95
807.942	8.67
808.244	11.05
808.546	11.29
808.848	11.61
809.149	8.89
809.451	10.89
809.752	9.55
810.054	8.23
810.355	9.35
810.656	10.06
810.958	10.17
811.259	10.52
811.56	11.07
811.861	11.62
812.162	11.07
812.463	10.7
812.764	9.39
813.065	12.79
813.365	11.13
813.666	12.41
813.967	10.18
814.267	14.11
814.568	11.29
814.868	12.05
815.169	12.97
815.469	13.28
815.769	11.83
816.069	11.91
816.37	10.81
816.67	8.3
816.97	7.37
817.27	5.21
817.57	4.85
817.869	8.14
818.169	11.39
818.469	11.32
818.768	12.12
819.068	12.6
819.368	11.82
819.667	8.46
819.966	8.25
820.266	9.34
820.565	10.4
820.864	9.55
821.163	10.8
821.463	11.02
821.762	10.74
822.06	9.45
822.359	9.45
822.658	8.86
822.957	9.54
823.256	9.44
823.554	9.28
823.853	9.36
824.152	9.55
824.45	9.43
824.748	9.41
825.047	9.81
825.345	9.49
825.643	9.51
825.941	9.21
826.239	8.58
826.538	8.3
826.836	8.97
827.133	8.8
827.431	8.25
827.729	9.26
828.027	9.82
828.324	9.01
828.622	8.49
828.92	9.27
829.217	9.28
829.514	8.84
829.812	9.42
830.109	10.69
830.406	10.36
830.703	10.04
831.001	8.84
831.298	9.87
831.595	10.6
831.891	11.7
832.188	11.95
832.485	15.08
832.782	12.81
833.078	11.97
833.375	12.01
833.672	13.33
833.968	11.64
834.264	12.15
834.561	11.66
834.857	10.2
835.153	9.94
835.449	10.93
835.746	12.48
836.042	13.84
836.338	14.17
836.633	13.95
836.929	14.05
837.225	15.48
837.521	13.71
837.816	17.99
838.112	21.53
838.408	22.71
838.703	20.18
838.998	20.4
839.294	19.78
839.589	19.08
839.884	21.01
840.179	16.36
840.474	13.26
840.77	10.96
841.064	11.28
841.359	5.28
841.654	14.13
841.949	18.35
842.244	17.16
842.538	12.81
842.833	18.18
843.127	14.42
843.422	10.54
843.716	13.14
844.011	12.84
844.305	10.37
844.599	8.02
844.893	11.11
845.187	6.95
845.481	14.28
845.775	6.82
846.069	6.89
846.363	9.99
846.657	12.93
846.95	11.25
847.244	17.59
847.537	16.74
847.831	16.69
848.124	18.38
848.418	14.78
848.711	17.52
849.004	23.48
849.297	20.55
849.591	0.36
849.884	13.39
850.177	16.41
850.47	13.97
850.762	19.11
851.055	39.22
851.348	26.65
851.641	34.85
851.933	40.82
852.226	45.04
852.518	40.75
852.811	54.37
853.103	45.08
853.395	29.07
853.687	22.59
853.98	31.73
854.272	20.06
854.564	14.42
854.856	29.74
855.148	37.42
855.439	29.48
855.731	38.82
856.023	40.9
856.314	42.33
856.606	38.7
856.898	47.5
857.189	45.45
857.48	45.91
857.772	31.21
858.063	24.88
858.354	10.04
858.645	13.61
858.936	4.73
859.227	26.88
859.518	41.49
859.809	37.61
860.1	40.03
860.391	39.83
860.681	48.51
860.972	62.72
861.262	40.82
861.553	37.48
861.843	57.85
862.134	39.32
862.424	23.4
862.714	52.76
863.004	49.34
863.294	37.75
863.584	28.75
863.874	32.74
864.164	20.29
864.454	51.25
864.744	55.77
865.034	57.33
865.323	37.51
865.613	47.92
865.902	32.46
866.192	36.9
866.481	47.13
866.77	51.93
867.06	39.12
867.349	61.49
867.638	82.33
867.927	30.98
868.216	27.34
868.505	46.89
868.794	44.74
869.082	19.62
869.371	28.11
869.66	38.11
869.948	43.45
870.237	37.32
870.525	55.49
870.814	71.93
871.102	68.54
871.39	51.19
871.678	78.19
871.967	88.95
872.255	84.74
872.543	128.29
872.831	145.2
873.118	49.32
873.406	-30.42
873.694	-49.19
873.982	-32.4
874.269	-0.27
874.557	8.9
874.844	15.83
875.132	27.31
875.419	14.63
