Data from Ss-i2_Reflection_14-48-20-503.txt Node
Date: Tue Aug 16 14:48:20 CEST 2022
User: IDIV
Spectrometer: FLMS14958
Trigger mode: 0
Integration Time (sec): 1.000000E-1
Scans to average: 10
Electric dark correction enabled: true
Nonlinearity correction enabled: true
Boxcar width: 2
XAxis mode: Wavelengths
Number of Pixels in Spectrum: 2048
>>>>>Begin Spectral Data<<<<<
179.491	-324.14
179.869	-156.17
180.247	-103.03
180.625	-71.36
181.003	106.36
181.381	-1447.42
181.759	-25.64
182.136	1443.16
182.514	-143.08
182.892	4071.06
183.27	819.27
183.647	-67.68
184.025	16.84
184.403	-48.06
184.78	193.68
185.158	302.3
185.536	-29.76
185.913	-26.04
186.291	-92.39
186.668	-28.67
187.046	-58.06
187.423	-2969.25
187.801	50.51
188.178	38.39
188.556	50
188.933	25.11
189.31	3.53
189.688	7.49
190.065	-3.34
190.442	-17.88
190.82	-7.99
191.197	17.92
191.574	7.04
191.951	7.33
192.329	7.88
192.706	-3.35
193.083	-3.79
193.46	1.61
193.837	-9.88
194.214	-23.86
194.591	-16.2
194.968	-19.76
195.345	-15.83
195.722	-9.26
196.099	0.31
196.476	-1.1
196.853	-7.04
197.23	-0.09
197.607	9.05
197.984	19.49
198.36	22.33
198.737	12.26
199.114	3.29
199.491	-2.06
199.867	-8.66
200.244	-19.29
200.621	-10.61
200.997	1.36
201.374	5.89
201.75	6.76
202.127	12.93
202.504	11.78
202.88	8.24
203.257	7.95
203.633	16.4
204.01	18.31
204.386	17.55
204.762	10.62
205.139	5.35
205.515	-4.59
205.891	-0.24
206.268	5.19
206.644	-0.56
207.02	3.4
207.396	8.56
207.773	9.35
208.149	15.74
208.525	23.01
208.901	19.58
209.277	9.21
209.653	-3.35
210.029	-13.37
210.405	-12.26
210.781	-14.8
211.157	-14.74
211.533	-3.44
211.909	-1.84
212.285	7.22
212.661	7.24
213.037	14.02
213.413	14.68
213.789	15.59
214.164	6.13
214.54	8.99
214.916	9.21
215.292	1.05
215.667	12.17
216.043	9.36
216.419	6.91
216.794	3.5
217.17	0.78
217.545	-11.75
217.921	-12.29
218.296	-10.19
218.672	-5.11
219.047	-0.12
219.423	2.63
219.798	10.8
220.174	5.82
220.549	8.39
220.924	10.14
221.3	8.37
221.675	2.64
222.05	0.57
222.425	-6.08
222.801	-6.2
223.176	-6.1
223.551	1.03
223.926	2.9
224.301	2.52
224.676	6.13
225.051	5.94
225.426	-1.13
225.801	1.51
226.176	6.17
226.551	4.72
226.926	9.76
227.301	13.84
227.676	12.2
228.051	6.21
228.426	4.03
228.801	1.44
229.175	0.48
229.55	1.21
229.925	2.35
230.3	2.07
230.674	2.03
231.049	2.09
231.424	1.28
231.798	0.18
232.173	0.52
232.547	1.41
232.922	-0.09
233.296	-1.19
233.671	-0.78
234.045	0.03
234.42	-0.06
234.794	1.02
235.168	2.69
235.543	2.26
235.917	1.49
236.291	0.7
236.666	0.44
237.04	-0.07
237.414	0.67
237.788	2.54
238.162	3.23
238.537	3.29
238.911	2.61
239.285	2.68
239.659	1.73
240.033	1.45
240.407	1.72
240.781	1.74
241.155	1.45
241.529	1.14
241.903	1.34
242.277	1.62
242.65	2.09
243.024	1.93
243.398	1.9
243.772	1.97
244.146	1.93
244.519	1.82
244.893	2.2
245.267	2.49
245.64	2.31
246.014	1.9
246.387	1.59
246.761	1.44
247.135	1.46
247.508	1.49
247.882	1.54
248.255	1.61
248.628	1.63
249.002	1.61
249.375	1.77
249.749	1.95
250.122	2.13
250.495	2.48
250.868	2.74
251.242	2.25
251.615	2.09
251.988	1.86
252.361	1.92
252.734	1.76
253.107	1.89
253.481	1.74
253.854	1.68
254.227	1.51
254.6	1.74
254.973	2.06
255.346	2.14
255.718	2.06
256.091	1.7
256.464	1.91
256.837	1.63
257.21	1.8
257.583	1.42
257.955	1.51
258.328	1.32
258.701	1.43
259.074	1.51
259.446	1.64
259.819	1.67
260.191	1.62
260.564	1.59
260.936	1.53
261.309	1.48
261.681	1.53
262.054	1.48
262.426	1.37
262.799	1.5
263.171	1.43
263.543	1.37
263.916	1.34
264.288	1.68
264.66	1.34
265.033	1.94
265.405	1.99
265.777	2
266.149	1.74
266.521	2.12
266.893	1.97
267.265	1.86
267.637	1.93
268.009	1.91
268.381	1.47
268.753	1.59
269.125	1.46
269.497	1.3
269.869	1.2
270.241	1.48
270.613	1.2
270.985	1.43
271.356	1.32
271.728	1.39
272.1	1.39
272.471	1.32
272.843	1.03
273.215	1.17
273.586	1.07
273.958	1.01
274.329	0.9
274.701	1.13
275.072	1
275.444	1.18
275.815	1.34
276.187	1.45
276.558	1.59
276.929	1.62
277.301	1.59
277.672	1.26
278.043	1.17
278.415	0.91
278.786	0.81
279.157	0.97
279.528	1.32
279.899	1.58
280.27	1.47
280.641	1.78
281.012	1.38
281.383	1.35
281.754	1.29
282.125	1.49
282.496	1.26
282.867	1.49
283.238	1.47
283.609	1.47
283.98	1.22
284.35	1.25
284.721	1.07
285.092	0.99
285.462	0.99
285.833	1.25
286.204	1.27
286.574	1.29
286.945	1.43
287.315	1.32
287.686	1.33
288.056	1.28
288.427	1.23
288.797	1.16
289.168	1.35
289.538	1.17
289.908	1.32
290.279	1.27
290.649	1.21
291.019	1.07
291.39	0.95
291.76	0.8
292.13	0.78
292.5	0.8
292.87	0.85
293.24	0.96
293.61	1.15
293.98	1.2
294.35	1.17
294.72	1.1
295.09	1.04
295.46	0.9
295.83	0.91
296.2	1
296.57	1.17
296.939	1.17
297.309	1.21
297.679	1.34
298.049	1.29
298.418	1.14
298.788	1.25
299.158	1.33
299.527	1.31
299.897	1.36
300.266	1.59
300.636	1.53
301.005	1.5
301.375	1.54
301.744	1.36
302.113	1.2
302.483	1.17
302.852	1.11
303.221	0.95
303.591	1.05
303.96	1.29
304.329	1.33
304.698	1.49
305.067	1.59
305.436	1.37
305.806	1.18
306.175	1.16
306.544	0.8
306.913	0.55
307.282	0.58
307.65	0.74
308.019	0.75
308.388	0.98
308.757	1.12
309.126	1.18
309.495	1.09
309.863	1.22
310.232	1.28
310.601	1.25
310.969	1.26
311.338	1.24
311.707	1.22
312.075	1.22
312.444	1.31
312.812	1.24
313.181	1.3
313.549	1.16
313.918	1.01
314.286	0.57
314.654	0.7
315.023	0.73
315.391	0.93
315.759	1.02
316.127	1.49
316.496	1.43
316.864	1.31
317.232	1.13
317.6	1.28
317.968	1.33
318.336	1.69
318.704	1.93
319.072	1.88
319.44	1.71
319.808	1.7
320.176	1.71
320.544	1.31
320.912	1.21
321.28	1.25
321.647	1.38
322.015	1.13
322.383	1.63
322.75	1.91
323.118	2.01
323.486	1.67
323.853	1.64
324.221	1.27
324.588	1.43
324.956	1.39
325.323	1.34
325.691	1.39
326.058	1.35
326.426	1.19
326.793	1.25
327.16	1.34
327.528	1.23
327.895	1.55
328.262	1.76
328.629	1.68
328.996	1.89
329.363	1.92
329.731	1.58
330.098	1.31
330.465	1.19
330.832	1.13
331.199	1.26
331.566	1.2
331.932	1.26
332.299	1.08
332.666	0.96
333.033	0.95
333.4	1.24
333.766	1.2
334.133	1.42
334.5	1.63
334.867	1.61
335.233	1.53
335.6	1.55
335.966	1.52
336.333	1.45
336.699	1.43
337.066	1.27
337.432	1.32
337.799	1.54
338.165	1.36
338.531	1.49
338.898	1.53
339.264	1.56
339.63	1.5
339.996	1.75
340.363	1.7
340.729	2.07
341.095	2.04
341.461	1.95
341.827	1.79
342.193	1.51
342.559	1.11
342.925	0.8
343.291	0.88
343.657	0.79
344.023	1.39
344.388	1.42
344.754	1.61
345.12	1.59
345.486	1.73
345.851	1.56
346.217	1.68
346.583	1.78
346.948	1.82
347.314	1.8
347.679	1.86
348.045	1.75
348.41	1.81
348.776	1.74
349.141	1.78
349.507	1.77
349.872	2
350.237	1.98
350.603	1.94
350.968	2.05
351.333	2.15
351.698	2.04
352.063	2.01
352.428	2.26
352.794	2.29
353.159	2.27
353.524	2.17
353.889	2.04
354.254	1.85
354.618	1.83
354.983	1.63
355.348	1.57
355.713	1.87
356.078	1.94
356.443	1.92
356.807	2.04
357.172	2.22
357.537	2.31
357.901	2.33
358.266	2.25
358.63	1.97
358.995	2
359.359	1.94
359.724	1.93
360.088	2.02
360.453	2.28
360.817	2.29
361.181	2.12
361.546	2.15
361.91	2.09
362.274	2.2
362.638	2.35
363.003	2.49
363.367	2.45
363.731	2.54
364.095	2.51
364.459	2.32
364.823	2.26
365.187	2.25
365.551	2.21
365.915	2.2
366.279	2.4
366.642	2.46
367.006	2.58
367.37	2.64
367.734	2.69
368.097	2.52
368.461	2.53
368.825	2.6
369.188	2.58
369.552	2.39
369.915	2.52
370.279	2.56
370.642	2.73
371.006	2.88
371.369	2.92
371.732	2.86
372.096	2.82
372.459	2.48
372.822	2.54
373.186	2.54
373.549	2.33
373.912	2.43
374.275	2.46
374.638	2.48
375.001	2.56
375.364	2.77
375.727	2.71
376.09	2.78
376.453	2.69
376.816	2.7
377.179	2.77
377.542	2.73
377.904	2.82
378.267	2.85
378.63	2.91
378.993	2.9
379.355	2.84
379.718	2.77
380.08	2.54
380.443	2.41
380.806	2.33
381.168	2.42
381.53	2.51
381.893	2.69
382.255	2.85
382.618	2.95
382.98	3.07
383.342	3.08
383.704	3.13
384.067	3.08
384.429	3.24
384.791	3.26
385.153	3.24
385.515	3.1
385.877	3.05
386.239	3.03
386.601	3.09
386.963	3.15
387.325	3.24
387.687	3.27
388.049	3.17
388.41	2.88
388.772	2.82
389.134	2.8
389.496	2.76
389.857	2.66
390.219	2.95
390.58	2.92
390.942	2.87
391.303	2.81
391.665	2.74
392.026	2.61
392.388	2.66
392.749	2.73
393.111	2.93
393.472	3.09
393.833	3.13
394.194	3.18
394.556	3.28
394.917	3.3
395.278	3.47
395.639	3.42
396	3.34
396.361	3.33
396.722	3.27
397.083	3.08
397.444	3.1
397.805	3.19
398.166	3.05
398.526	3.05
398.887	3.07
399.248	3.03
399.609	3.06
399.969	3.06
400.33	3.04
400.691	3.11
401.051	3.19
401.412	3.17
401.772	3.25
402.133	3.27
402.493	3.09
402.853	3.13
403.214	3.05
403.574	3.01
403.934	2.92
404.295	3.04
404.655	2.95
405.015	3.05
405.375	3.06
405.735	3.22
406.095	3.17
406.455	3.27
406.815	3.25
407.175	3.26
407.535	3.11
407.895	3.16
408.255	3.12
408.615	3.06
408.975	3.05
409.334	3.16
409.694	3.07
410.054	3.13
410.413	3.18
410.773	3.25
411.133	3.18
411.492	3.28
411.852	3.21
412.211	3.25
412.571	3.16
412.93	3.23
413.289	3.24
413.649	3.27
414.008	3.17
414.367	3.38
414.726	3.4
415.086	3.39
415.445	3.39
415.804	3.34
416.163	3.15
416.522	3.1
416.881	3.08
417.24	3.04
417.599	3.05
417.958	3.1
418.316	3.1
418.675	3.07
419.034	3.05
419.393	3.03
419.751	3.08
420.11	3.02
420.469	2.96
420.827	2.97
421.186	3
421.544	2.92
421.903	3.05
422.261	3.14
422.62	3.12
422.978	3.1
423.336	3.11
423.695	2.99
424.053	2.9
424.411	2.91
424.769	2.89
425.128	2.86
425.486	2.9
425.844	2.96
426.202	2.99
426.56	3.04
426.918	3.11
427.276	3.08
427.634	3.07
427.991	3.05
428.349	2.95
428.707	2.88
429.065	2.91
429.423	2.84
429.78	2.81
430.138	2.83
430.495	2.82
430.853	2.78
431.211	2.88
431.568	2.86
431.925	2.92
432.283	2.97
432.64	3.05
432.998	3.05
433.355	3.11
433.712	3.08
434.069	3.05
434.427	3.04
434.784	3.08
435.141	3.12
435.498	3.17
435.855	3.17
436.212	3.14
436.569	3.03
436.926	3.05
437.283	3.03
437.64	3
437.996	2.99
438.353	3.02
438.71	2.95
439.067	2.93
439.423	2.96
439.78	2.92
440.137	2.92
440.493	2.91
440.85	2.95
441.206	2.92
441.563	2.89
441.919	2.92
442.275	2.87
442.632	2.79
442.988	2.9
443.344	2.97
443.7	2.9
444.057	2.93
444.413	2.89
444.769	2.83
445.125	2.83
445.481	2.83
445.837	2.88
446.193	2.93
446.549	2.92
446.905	2.95
447.26	2.91
447.616	2.91
447.972	2.92
448.328	2.87
448.683	2.83
449.039	2.89
449.395	2.84
449.75	2.89
450.106	2.96
450.461	2.98
450.817	3.04
451.172	3.12
451.527	3.01
451.883	3.03
452.238	3.05
452.593	3.01
452.949	2.97
453.304	3
453.659	3.01
454.014	2.91
454.369	2.94
454.724	2.95
455.079	2.97
455.434	3.03
455.789	3.09
456.144	3.02
456.499	3.03
456.853	3.08
457.208	2.92
457.563	2.98
457.918	3.01
458.272	2.96
458.627	2.88
458.981	2.89
459.336	2.86
459.69	2.86
460.045	2.87
460.399	2.88
460.754	2.91
461.108	2.87
461.462	2.86
461.817	2.88
462.171	2.89
462.525	2.84
462.879	2.87
463.233	2.9
463.587	2.92
463.941	2.86
464.295	2.89
464.649	2.93
465.003	2.86
465.357	2.83
465.711	2.95
466.065	2.93
466.418	2.9
466.772	2.95
467.126	2.95
467.479	2.93
467.833	2.92
468.186	2.91
468.54	2.94
468.893	2.84
469.247	2.8
469.6	2.81
469.954	2.77
470.307	2.7
470.66	2.75
471.013	2.65
471.367	2.68
471.72	2.71
472.073	2.75
472.426	2.69
472.779	2.79
473.132	2.82
473.485	2.82
473.838	2.78
474.191	2.88
474.544	2.86
474.896	2.77
475.249	2.82
475.602	2.82
475.955	2.85
476.307	2.81
476.66	2.84
477.012	2.79
477.365	2.76
477.717	2.63
478.07	2.59
478.422	2.54
478.775	2.52
479.127	2.5
479.479	2.57
479.831	2.58
480.184	2.64
480.536	2.65
480.888	2.69
481.24	2.69
481.592	2.68
481.944	2.63
482.296	2.63
482.648	2.59
483	2.53
483.352	2.49
483.703	2.49
484.055	2.5
484.407	2.51
484.759	2.5
485.11	2.56
485.462	2.57
485.813	2.58
486.165	2.58
486.516	2.61
486.868	2.55
487.219	2.52
487.571	2.53
487.922	2.52
488.273	2.5
488.624	2.53
488.976	2.53
489.327	2.52
489.678	2.54
490.029	2.53
490.38	2.5
490.731	2.48
491.082	2.43
491.433	2.42
491.784	2.43
492.135	2.44
492.485	2.45
492.836	2.47
493.187	2.45
493.537	2.47
493.888	2.5
494.239	2.48
494.589	2.49
494.94	2.5
495.29	2.47
495.641	2.42
495.991	2.45
496.341	2.46
496.692	2.41
497.042	2.39
497.392	2.39
497.742	2.39
498.092	2.39
498.442	2.39
498.793	2.4
499.143	2.41
499.493	2.4
499.842	2.4
500.192	2.43
500.542	2.41
500.892	2.37
501.242	2.36
501.591	2.37
501.941	2.34
502.291	2.36
502.64	2.41
502.99	2.38
503.339	2.34
503.689	2.34
504.038	2.34
504.388	2.32
504.737	2.32
505.086	2.35
505.436	2.37
505.785	2.38
506.134	2.37
506.483	2.33
506.832	2.28
507.181	2.23
507.53	2.24
507.879	2.28
508.228	2.28
508.577	2.27
508.926	2.29
509.275	2.24
509.624	2.21
509.972	2.2
510.321	2.23
510.67	2.21
511.018	2.24
511.367	2.23
511.715	2.27
512.064	2.28
512.412	2.3
512.761	2.25
513.109	2.27
513.457	2.28
513.806	2.23
514.154	2.24
514.502	2.27
514.85	2.23
515.198	2.26
515.546	2.33
515.894	2.28
516.242	2.27
516.59	2.28
516.938	2.26
517.286	2.22
517.634	2.25
517.981	2.25
518.329	2.28
518.677	2.25
519.024	2.25
519.372	2.26
519.72	2.3
520.067	2.31
520.415	2.35
520.762	2.33
521.109	2.3
521.457	2.29
521.804	2.24
522.151	2.21
522.498	2.27
522.846	2.28
523.193	2.23
523.54	2.24
523.887	2.27
524.234	2.3
524.581	2.26
524.928	2.27
525.275	2.23
525.621	2.24
525.968	2.2
526.315	2.23
526.662	2.23
527.008	2.25
527.355	2.2
527.701	2.18
528.048	2.14
528.394	2.18
528.741	2.17
529.087	2.2
529.434	2.21
529.78	2.24
530.126	2.22
530.472	2.22
530.819	2.2
531.165	2.18
531.511	2.18
531.857	2.14
532.203	2.11
532.549	2.11
532.895	2.09
533.241	2.1
533.586	2.14
533.932	2.2
534.278	2.2
534.624	2.21
534.969	2.24
535.315	2.23
535.661	2.19
536.006	2.21
536.352	2.23
536.697	2.22
537.042	2.25
537.388	2.29
537.733	2.28
538.078	2.28
538.424	2.28
538.769	2.29
539.114	2.29
539.459	2.29
539.804	2.35
540.149	2.34
540.494	2.37
540.839	2.33
541.184	2.33
541.529	2.31
541.873	2.33
542.218	2.31
542.563	2.33
542.908	2.34
543.252	2.31
543.597	2.29
543.941	2.28
544.286	2.27
544.63	2.28
544.975	2.32
545.319	2.37
545.663	2.42
546.007	2.46
546.352	2.48
546.696	2.49
547.04	2.48
547.384	2.44
547.728	2.41
548.072	2.46
548.416	2.51
548.76	2.53
549.104	2.58
549.448	2.59
549.791	2.59
550.135	2.55
550.479	2.52
550.823	2.49
551.166	2.51
551.51	2.46
551.853	2.42
552.197	2.41
552.54	2.38
552.883	2.38
553.227	2.4
553.57	2.44
553.913	2.48
554.257	2.55
554.6	2.54
554.943	2.62
555.286	2.65
555.629	2.61
555.972	2.61
556.315	2.6
556.658	2.51
557.001	2.47
557.343	2.51
557.686	2.47
558.029	2.49
558.371	2.45
558.714	2.52
559.057	2.51
559.399	2.56
559.742	2.54
560.084	2.63
560.427	2.64
560.769	2.7
561.111	2.66
561.453	2.74
561.796	2.72
562.138	2.74
562.48	2.77
562.822	2.86
563.164	2.83
563.506	2.87
563.848	2.8
564.19	2.79
564.532	2.76
564.874	2.79
565.215	2.8
565.557	2.83
565.899	2.79
566.24	2.87
566.582	2.91
566.924	2.92
567.265	2.93
567.606	3.01
567.948	2.95
568.289	2.9
568.631	2.99
568.972	3.01
569.313	2.97
569.654	2.92
569.995	2.97
570.336	2.85
570.677	2.84
571.018	2.85
571.359	2.95
571.7	2.94
572.041	3
572.382	3.02
572.723	3.07
573.064	3.11
573.404	3.15
573.745	3.17
574.085	3.2
574.426	3.18
574.766	3.2
575.107	3.2
575.447	3.17
575.788	3.2
576.128	3.28
576.468	3.29
576.808	3.31
577.149	3.35
577.489	3.4
577.829	3.47
578.169	3.55
578.509	3.58
578.849	3.68
579.189	3.75
579.529	3.78
579.868	3.8
580.208	3.85
580.548	3.87
580.887	3.89
581.227	3.84
581.567	3.78
581.906	3.78
582.246	3.79
582.585	3.77
582.925	3.82
583.264	3.77
583.603	3.81
583.942	3.85
584.282	3.95
584.621	3.94
584.96	4.16
585.299	4.11
585.638	4.12
585.977	4.11
586.316	4.17
586.655	4.08
586.994	4.13
587.332	4.11
587.671	3.93
588.01	3.95
588.348	3.95
588.687	3.93
589.026	3.93
589.364	4.06
589.703	3.96
590.041	3.89
590.379	3.89
590.718	3.89
591.056	3.9
591.394	3.92
591.732	4.03
592.07	4.21
592.409	4.25
592.747	4.26
593.085	4.28
593.423	4.28
593.76	4.13
594.098	4.17
594.436	4.16
594.774	4.24
595.112	4.24
595.449	4.26
595.787	4.25
596.124	4.26
596.462	4.23
596.799	4.21
597.137	4.21
597.474	4.21
597.812	4.21
598.149	4.18
598.486	4.22
598.823	4.21
599.16	4.26
599.498	4.36
599.835	4.38
600.172	4.32
600.509	4.33
600.845	4.32
601.182	4.25
601.519	4.34
601.856	4.47
602.193	4.54
602.529	4.38
602.866	4.37
603.202	4.35
603.539	4.32
603.875	4.26
604.212	4.37
604.548	4.35
604.885	4.29
605.221	4.31
605.557	4.38
605.893	4.47
606.23	4.53
606.566	4.64
606.902	4.66
607.238	4.64
607.574	4.61
607.91	4.57
608.245	4.56
608.581	4.61
608.917	4.69
609.253	4.7
609.588	4.84
609.924	5.01
610.26	5.3
610.595	5.62
610.931	6.08
611.266	6.41
611.601	6.67
611.937	6.7
612.272	6.45
612.607	6.32
612.942	6.06
613.278	5.9
613.613	5.8
613.948	5.99
614.283	5.85
614.618	5.77
614.953	5.61
615.287	5.41
615.622	5.31
615.957	5.11
616.292	5.09
616.626	5.06
616.961	5.11
617.295	4.93
617.63	4.85
617.964	4.87
618.299	4.8
618.633	4.76
618.968	4.84
619.302	4.87
619.636	4.88
619.97	4.95
620.304	4.85
620.638	4.8
620.972	4.91
621.306	4.81
621.64	4.77
621.974	4.89
622.308	4.89
622.642	4.79
622.976	4.72
623.309	4.74
623.643	4.66
623.977	4.72
624.31	4.77
624.644	4.93
624.977	4.85
625.31	4.87
625.644	4.76
625.977	4.81
626.31	4.59
626.643	4.68
626.977	4.73
627.31	4.83
627.643	4.77
627.976	4.9
628.309	4.86
628.642	4.83
628.974	4.79
629.307	4.84
629.64	4.93
629.973	5.05
630.305	5.06
630.638	5.06
630.971	5.06
631.303	5.07
631.636	4.88
631.968	4.82
632.3	4.87
632.633	4.83
632.965	4.72
633.297	4.75
633.629	4.72
633.961	4.58
634.293	4.6
634.625	4.54
634.957	4.5
635.289	4.53
635.621	4.6
635.953	4.56
636.285	4.64
636.617	4.7
636.948	4.57
637.28	4.56
637.611	4.45
637.943	4.4
638.274	4.27
638.606	4.48
638.937	4.35
639.269	4.28
639.6	4.31
639.931	4.34
640.262	4.28
640.593	4.4
640.924	4.44
641.255	4.26
641.586	4.22
641.917	4.18
642.248	4.11
642.579	4.16
642.91	4.26
643.24	4.46
643.571	4.39
643.902	4.52
644.232	4.53
644.563	4.58
644.893	4.48
645.224	4.46
645.554	4.34
645.884	4.29
646.215	4.36
646.545	4.39
646.875	4.53
647.205	4.56
647.535	4.56
647.865	4.53
648.195	4.4
648.525	4.18
648.855	4.13
649.185	4.18
649.515	4.14
649.844	4.23
650.174	4.3
650.504	4.32
650.833	4.26
651.163	4.18
651.492	4.24
651.822	4.21
652.151	4.19
652.48	4.25
652.81	4.47
653.139	4.46
653.468	4.48
653.797	4.39
654.126	4.46
654.455	4.32
654.784	4.4
655.113	4.48
655.442	4.7
655.771	4.47
656.099	4.47
656.428	4.24
656.757	4.13
657.085	4.06
657.414	4.25
657.742	4.19
658.071	4.35
658.399	4.42
658.728	4.22
659.056	4.3
659.384	4.24
659.712	4.19
660.04	4.14
660.369	4.19
660.697	3.96
661.025	3.99
661.353	3.9
661.68	3.85
662.008	3.94
662.336	3.9
662.664	3.98
662.991	4.2
663.319	4.34
663.647	4.45
663.974	4.51
664.302	4.45
664.629	4.15
664.956	4.09
665.284	4.01
665.611	4.03
665.938	4.27
666.265	4.28
666.593	4.33
666.92	4.25
667.247	4.35
667.574	4.11
667.9	4.28
668.227	4.3
668.554	4.26
668.881	4.26
669.208	4.09
669.534	3.95
669.861	3.85
670.187	4.07
670.514	3.93
670.84	4.11
671.167	4.33
671.493	4.43
671.819	4.31
672.146	4.48
672.472	4.74
672.798	4.66
673.124	4.53
673.45	4.33
673.776	4.12
674.102	4.02
674.428	3.9
674.754	3.84
675.079	4.11
675.405	4.43
675.731	4.34
676.056	4.41
676.382	4.5
676.707	4.48
677.033	4.48
677.358	4.57
677.684	4.42
678.009	4.78
678.334	4.8
678.659	4.86
678.985	4.86
679.31	4.95
679.635	4.87
679.96	4.96
680.285	4.68
680.609	4.52
680.934	4.65
681.259	4.58
681.584	4.35
681.908	4.53
682.233	4.79
682.558	4.85
682.882	4.79
683.207	5.07
683.531	5.3
683.855	5.28
684.18	5.35
684.504	5.35
684.828	5.06
685.152	4.96
685.476	4.77
685.8	4.73
686.124	4.86
686.448	5.13
686.772	5.22
687.096	5.43
687.42	5.27
687.744	5.08
688.067	5.18
688.391	4.83
688.714	4.77
689.038	4.77
689.361	5.34
689.685	5.17
690.008	5.18
690.331	5.2
690.655	5.28
690.978	4.9
691.301	5.04
691.624	5.5
691.947	5.43
692.27	5.31
692.593	5.4
692.916	5.04
693.239	4.67
693.561	4.83
693.884	5.13
694.207	5.28
694.529	5.47
694.852	5.61
695.174	5.57
695.497	5.58
695.819	5.6
696.142	5.78
696.464	5.96
696.786	5.73
697.108	5.46
697.43	5.23
697.753	5.06
698.075	5.21
698.397	5.52
698.718	5.56
699.04	5.64
699.362	5.85
699.684	5.6
700.006	5.45
700.327	5.61
700.649	5.53
700.97	5.43
701.292	5.27
701.613	5.31
701.935	5.15
702.256	5.18
702.577	4.94
702.898	5.3
703.22	5.2
703.541	5.21
703.862	5.25
704.183	5.41
704.504	5.14
704.825	5.42
705.145	5.69
705.466	5.67
705.787	5.61
706.108	5.81
706.428	5.84
706.749	5.86
707.069	5.82
707.39	6.31
707.71	6.83
708.03	6.74
708.351	6.69
708.671	6.75
708.991	6.86
709.311	6.5
709.631	6.58
709.951	6.39
710.271	6.31
710.591	5.61
710.911	5.58
711.231	5.68
711.551	5.85
711.87	6.08
712.19	6.37
712.51	6.43
712.829	6.21
713.149	6.19
713.468	6.09
713.787	6.09
714.107	5.99
714.426	6.11
714.745	6.1
715.064	6.31
715.383	6.33
715.702	6.03
716.021	5.98
716.34	6.01
716.659	5.94
716.978	5.82
717.297	5.83
717.615	5.44
717.934	4.99
718.253	4.77
718.571	4.93
718.89	5
719.208	5.47
719.527	6.1
719.845	6.24
720.163	5.83
720.481	6.29
720.8	6.15
721.118	5.65
721.436	6.06
721.754	6.41
722.072	6.26
722.39	5.78
722.707	5.69
723.025	5.26
723.343	4.99
723.661	4.6
723.978	4.79
724.296	5.22
724.613	5.18
724.931	5.2
725.248	5.95
725.565	6.02
725.883	5.32
726.2	5.09
726.517	4.82
726.834	4.62
727.151	4.83
727.468	5.56
727.785	5.57
728.102	6.21
728.419	6.23
728.736	6.43
729.052	6.2
729.369	6.2
729.686	6.14
730.002	5.52
730.319	5.54
730.635	5.64
730.951	5.85
731.268	5.33
731.584	5.87
731.9	5.69
732.216	5.67
732.533	5.51
732.849	5.93
733.165	5.71
733.481	5.74
733.796	5.54
734.112	5.5
734.428	5.02
734.744	4.91
735.059	4.96
735.375	4.92
735.691	5.11
736.006	5.03
736.322	4.91
736.637	4.56
736.952	4.58
737.268	4.63
737.583	5.46
737.898	5.95
738.213	6.42
738.528	5.96
738.843	5.95
739.158	5.59
739.473	5.99
739.788	5.44
740.102	6.18
740.417	6.19
740.732	6.24
741.046	5.32
741.361	5.82
741.675	5.47
741.99	5.47
742.304	5.64
742.618	5.97
742.933	5.9
743.247	6.03
743.561	5.84
743.875	5.27
744.189	5.36
744.503	4.69
744.817	4.67
745.131	4.4
745.445	4.52
745.758	4.46
746.072	5.21
746.386	4.54
746.699	5.01
747.013	5.59
747.326	5.75
747.64	5.75
747.953	6.12
748.266	5.93
748.58	5.94
748.893	6.08
749.206	6.6
749.519	6.74
749.832	6.78
750.145	6.64
750.458	6.22
750.771	5.84
751.083	5.97
751.396	6.7
751.709	6.96
752.021	6.85
752.334	6.52
752.646	6.7
752.959	6.5
753.271	5.96
753.584	6.08
753.896	6.31
754.208	6.81
754.52	6.48
754.832	6.78
755.144	6.12
755.456	5.79
755.768	5.23
756.08	4.98
756.392	5.36
756.704	5.86
757.015	5.69
757.327	5.84
757.638	6.51
757.95	5.9
758.261	6.45
758.573	6.96
758.884	6.98
759.195	6.47
759.507	6.3
759.818	6.25
760.129	6.42
760.44	5.62
760.751	5.53
761.062	5.5
761.373	4.86
761.684	4.14
761.994	4.11
762.305	3.22
762.616	3.84
762.926	4.69
763.237	4.58
763.547	5.21
763.858	5.3
764.168	5.22
764.478	4.68
764.789	5.09
765.099	4.77
765.409	5.27
765.719	5.41
766.029	5.58
766.339	5.67
766.649	5.6
766.959	5.82
767.269	5.63
767.578	6.02
767.888	6.2
768.198	6.66
768.507	6.71
768.817	6.43
769.126	6.06
769.435	4.32
769.745	3.89
770.054	3.1
770.363	2.95
770.672	2.86
770.981	4.66
771.29	5.02
771.599	5.14
771.908	5.89
772.217	5.89
772.526	4.96
772.835	3.95
773.143	4.12
773.452	2.89
773.76	2.77
774.069	3.11
774.377	4.44
774.686	5.2
774.994	5.89
775.302	6.71
775.611	6.86
775.919	7.72
776.227	6.78
776.535	6.69
776.843	6
777.151	6.29
777.459	5.06
777.766	5.23
778.074	6.59
778.382	6.03
778.689	4.86
778.997	4.24
779.304	4.27
779.612	3.12
779.919	3.77
780.227	3.13
780.534	2.1
780.841	1.68
781.148	0.45
781.455	1.03
781.762	3.3
782.069	4.09
782.376	3.99
782.683	3.42
782.99	2.54
783.296	2.05
783.603	3.9
783.91	4.84
784.216	6.3
784.523	7.38
784.829	7.13
785.136	6.04
785.442	5.84
785.748	5.6
786.054	3.64
786.36	3.27
786.667	2.41
786.973	1.98
787.278	2.49
787.584	3.7
787.89	3.71
788.196	4.64
788.502	4.31
788.807	3.83
789.113	4
789.418	3.89
789.724	3.97
790.029	5.05
790.335	5.6
790.64	4.67
790.945	5.03
791.25	5.21
791.556	5.08
791.861	5.98
792.166	8.65
792.471	8.14
792.775	7.09
793.08	6.36
793.385	5.91
793.69	3.96
793.994	5.6
794.299	6.68
794.603	6.79
794.908	8.02
795.212	7.96
795.517	6.76
795.821	7.21
796.125	7.32
796.429	6.58
796.733	5.64
797.037	5.27
797.341	3.76
797.645	2.09
797.949	3.29
798.253	4.42
798.557	4.42
798.86	3.89
799.164	5.63
799.468	4.57
799.771	3.94
800.074	2.42
800.378	4.18
800.681	4.79
800.984	2.7
801.288	2.38
801.591	4.98
801.894	3.9
802.197	2.71
802.5	2.61
802.803	2.85
803.105	0.14
803.408	1.92
803.711	4.22
804.014	5.13
804.316	6.55
804.619	8.26
804.921	6.77
805.224	3.61
805.526	1.86
805.828	3.29
806.13	3.5
806.433	5.46
806.735	5.32
807.037	8.29
807.339	6.86
807.641	7.79
807.942	4.82
808.244	6.1
808.546	5.79
808.848	4.57
809.149	3.81
809.451	4.27
809.752	3.95
810.054	2.36
810.355	4.15
810.656	3.72
810.958	6.7
811.259	7.58
811.56	9.28
811.861	8.79
812.162	9.08
812.463	5.48
812.764	6.23
813.065	6.26
813.365	6.4
813.666	6.04
813.967	8.52
814.267	5.43
814.568	3.36
814.868	0.99
815.169	1.49
815.469	0.7
815.769	1.28
816.069	2.62
816.37	3.37
816.67	2.61
816.97	5.53
817.27	7.6
817.57	6.43
817.869	9.85
818.169	9.41
818.469	7.65
818.768	9.97
819.068	11.87
819.368	10.08
819.667	11.05
819.966	10.41
820.266	6.55
820.565	3.75
820.864	3.11
821.163	3.31
821.463	2.88
821.762	4.78
822.06	7.07
822.359	7.31
822.658	7.09
822.957	6.84
823.256	6.31
823.554	5.94
823.853	5.68
824.152	5.58
824.45	6.02
824.748	6.23
825.047	6.55
825.345	7.22
825.643	8.16
825.941	7.62
826.239	8.06
826.538	6.89
826.836	6.39
827.133	5.02
827.431	6.43
827.729	5.55
828.027	7.53
828.324	7.08
828.622	7.36
828.92	5.22
829.217	4.79
829.514	3.38
829.812	3.1
830.109	2.77
830.406	3.97
830.703	5.66
831.001	4.19
831.298	3.15
831.595	1.8
831.891	5.08
832.188	5.31
832.485	5.7
832.782	6.93
833.078	7.64
833.375	3.44
833.672	1.87
833.968	4.58
834.264	6.37
834.561	4.96
834.857	6.37
835.153	4.87
835.449	4.75
835.746	4.3
836.042	5.83
836.338	4.92
836.633	6.93
836.929	5.05
837.225	3.66
837.521	0.84
837.816	0.44
838.112	-1.65
838.408	1.27
838.703	4.61
838.998	8.98
839.294	9.33
839.589	9.55
839.884	7.77
840.179	1.44
840.474	-3.34
840.77	1.14
841.064	3.12
841.359	5.38
841.654	8.68
841.949	8.91
842.244	11.15
842.538	12.25
842.833	15.49
843.127	15.62
843.422	10.25
843.716	6.68
844.011	1.91
844.305	-2.81
844.599	-6.16
844.893	-0.97
845.187	2.92
845.481	5.8
845.775	11.97
846.069	11.65
846.363	16.66
846.657	2.3
846.95	0.33
847.244	-10.73
847.537	-0.24
847.831	-5.11
848.124	-8.43
848.418	2.75
848.711	19.06
849.004	6.63
849.297	14.92
849.591	20.13
849.884	6.8
850.177	-2.42
850.47	-0.35
850.762	2.72
851.055	-5.29
851.348	-11.45
851.641	-42.32
851.933	-25.54
852.226	-35.07
852.518	-26.59
852.811	-14.32
853.103	-1.98
853.395	-11.03
853.687	-4.36
853.98	-6.87
854.272	-23.68
854.564	-14.03
854.856	0.92
855.148	-20.79
855.439	4.77
855.731	15.71
856.023	20.7
856.314	12.6
856.606	39.79
856.898	30.87
857.189	40.67
857.48	37.17
857.772	38.03
858.063	34.84
858.354	37.46
858.645	24.87
858.936	16.92
859.227	32.69
859.518	29.35
859.809	25.91
860.1	43.52
860.391	40.13
860.681	7.53
860.972	-14.16
861.262	-12.73
861.553	-28.55
861.843	6.84
862.134	17.16
862.424	31.71
862.714	17.62
863.004	14.95
863.294	-17.17
863.584	-5.69
863.874	-17.31
864.164	0.51
864.454	-5.91
864.744	25.57
865.034	26.29
865.323	37.29
865.613	22.71
865.902	47.43
866.192	36.69
866.481	20.3
866.77	-1.96
867.06	2.55
867.349	-47.96
867.638	-59.98
867.927	683.83
868.216	155.72
868.505	125.04
868.794	114.48
869.082	407.95
869.371	-31.96
869.66	-30.36
869.948	-6.26
870.237	23.85
870.525	8.7
870.814	15.67
871.102	32.62
871.39	41.01
871.678	35.71
871.967	43.82
872.255	33.94
872.543	52.4
872.831	1134.68
873.118	129.49
873.406	-207.46
873.694	122.53
873.982	-348.95
874.269	33.67
874.557	-1.14
874.844	36.61
875.132	91.6
875.419	91.04
