Data from Stp-i2_Reflection_15-14-16-450.txt Node
Date: Tue Aug 16 15:14:16 CEST 2022
User: IDIV
Spectrometer: FLMS14958
Trigger mode: 0
Integration Time (sec): 1.000000E-1
Scans to average: 10
Electric dark correction enabled: true
Nonlinearity correction enabled: true
Boxcar width: 2
XAxis mode: Wavelengths
Number of Pixels in Spectrum: 2048
>>>>>Begin Spectral Data<<<<<
179.491	-2.08
179.869	10.64
180.247	-30.72
180.625	-20.13
181.003	-40.91
181.381	38.11
181.759	63.19
182.136	24.63
182.514	-13.48
182.892	-55.54
183.27	-965.06
183.647	-2182.3
184.025	211.72
184.403	208.92
184.78	17.54
185.158	111.46
185.536	-61.34
185.913	-833.85
186.291	-151.04
186.668	744.7
187.046	2772.02
187.423	-819.72
187.801	65.35
188.178	35.35
188.556	11.99
188.933	14.41
189.31	15.98
189.688	9.67
190.065	-1.95
190.442	-0.37
190.82	0.98
191.197	-10.87
191.574	-11.82
191.951	0.47
192.329	-3.11
192.706	1.73
193.083	10.52
193.46	18.33
193.837	11.68
194.214	19.38
194.591	11.49
194.968	11.32
195.345	10.57
195.722	7.63
196.099	4.49
196.476	2.76
196.853	2.82
197.23	-3.98
197.607	-2.62
197.984	5.34
198.36	2.05
198.737	4.39
199.114	5.75
199.491	3.72
199.867	-7.51
200.244	-2.18
200.621	2.6
200.997	5.39
201.374	18.42
201.75	18.81
202.127	20.73
202.504	12.54
202.88	8
203.257	-3.67
203.633	2.72
204.01	1.92
204.386	3.47
204.762	11.97
205.139	8.43
205.515	4.4
205.891	7.01
206.268	11.36
206.644	-1.49
207.02	2.76
207.396	7.63
207.773	7.28
208.149	-7.28
208.525	0.95
208.901	-7.57
209.277	-27.92
209.653	-24.21
210.029	-18.33
210.405	-14.98
210.781	-5.07
211.157	6.42
211.533	5.46
211.909	5.77
212.285	-8.32
212.661	-1.8
213.037	-0.94
213.413	-4.27
213.789	-6.33
214.164	8.54
214.54	-0.43
214.916	0.89
215.292	6.53
215.667	11.04
216.043	5.46
216.419	-2.98
216.794	-5.57
217.17	-14.26
217.545	-16.82
217.921	-24.87
218.296	-5.98
218.672	-10.47
219.047	-6.56
219.423	-0.54
219.798	10.42
220.174	3.26
220.549	15
220.924	18.95
221.3	18.15
221.675	9.73
222.05	7.78
222.425	0.67
222.801	-11.19
223.176	-14.07
223.551	-10.03
223.926	-7.52
224.301	-5.15
224.676	5.93
225.051	10.89
225.426	14.21
225.801	15.38
226.176	16.66
226.551	7.61
226.926	2.81
227.301	-4.73
227.676	-2.73
228.051	-1.84
228.426	0.86
228.801	2.98
229.175	5.37
229.55	3.51
229.925	3.31
230.3	3.87
230.674	1.79
231.049	1.84
231.424	3.12
231.798	3.18
232.173	2.71
232.547	5.13
232.922	4.87
233.296	3.98
233.671	5.26
234.045	6.16
234.42	5.39
234.794	4.88
235.168	4.89
235.543	4.28
235.917	2.69
236.291	2.62
236.666	1.32
237.04	0.87
237.414	-0.93
237.788	-0.95
238.162	0.09
238.537	0.83
238.911	1.8
239.285	2.6
239.659	2.75
240.033	1.64
240.407	1.12
240.781	1.55
241.155	1.65
241.529	1.82
241.903	2.1
242.277	2.52
242.65	1.99
243.024	1.93
243.398	2.02
243.772	2.05
244.146	2.05
244.519	1.94
244.893	1.96
245.267	1.93
245.64	2.05
246.014	1.95
246.387	1.75
246.761	1.84
247.135	1.83
247.508	1.9
247.882	1.9
248.255	2.12
248.628	2.05
249.002	1.94
249.375	1.69
249.749	1.74
250.122	1.38
250.495	1.52
250.868	1.68
251.242	1.74
251.615	1.76
251.988	2.22
252.361	2.02
252.734	1.84
253.107	1.98
253.481	1.86
253.854	1.77
254.227	2.03
254.6	2.07
254.973	1.57
255.346	1.45
255.718	1.94
256.091	1.78
256.464	1.77
256.837	1.78
257.21	1.9
257.583	1.17
257.955	1.07
258.328	1.1
258.701	1.44
259.074	1.4
259.446	1.67
259.819	1.68
260.191	1.8
260.564	1.74
260.936	1.63
261.309	1.57
261.681	1.31
262.054	1.16
262.426	1.08
262.799	1.34
263.171	1.31
263.543	2.04
263.916	2.12
264.288	2.31
264.66	2.33
265.033	2.37
265.405	2.33
265.777	2.43
266.149	2.25
266.521	2.07
266.893	2.09
267.265	1.7
267.637	1.68
268.009	1.69
268.381	1.79
268.753	1.66
269.125	1.6
269.497	1.45
269.869	1.5
270.241	1.77
270.613	1.86
270.985	1.8
271.356	1.5
271.728	1.42
272.1	1.21
272.471	1.31
272.843	1.65
273.215	1.87
273.586	1.8
273.958	1.46
274.329	1.43
274.701	1.15
275.072	0.96
275.444	0.86
275.815	1.38
276.187	1.51
276.558	1.84
276.929	2.05
277.301	2.36
277.672	2.05
278.043	1.55
278.415	1.37
278.786	1.29
279.157	1.25
279.528	1.34
279.899	1.52
280.27	1.56
280.641	1.66
281.012	1.52
281.383	1.55
281.754	1.46
282.125	1.37
282.496	1.2
282.867	1.27
283.238	1.02
283.609	1.22
283.98	1.24
284.35	1.53
284.721	1.49
285.092	1.7
285.462	1.62
285.833	1.51
286.204	1.33
286.574	1.38
286.945	1.54
287.315	1.66
287.686	1.75
288.056	1.69
288.427	1.66
288.797	1.62
289.168	1.46
289.538	1.5
289.908	1.65
290.279	1.56
290.649	1.51
291.019	1.51
291.39	1.65
291.76	1.76
292.13	1.93
292.5	1.92
292.87	1.84
293.24	1.72
293.61	1.55
293.98	1.07
294.35	1.08
294.72	1.21
295.09	1.21
295.46	1.19
295.83	1.55
296.2	1.49
296.57	1.5
296.939	1.46
297.309	1.62
297.679	1.68
298.049	1.82
298.418	1.81
298.788	1.89
299.158	1.7
299.527	1.4
299.897	1.03
300.266	1.16
300.636	1.05
301.005	1.12
301.375	1.27
301.744	1.47
302.113	1.48
302.483	1.3
302.852	1.03
303.221	1.07
303.591	0.99
303.96	0.62
304.329	0.65
304.698	0.86
305.067	0.92
305.436	1.01
305.806	1.24
306.175	1.54
306.544	1.57
306.913	1.64
307.282	1.81
307.65	1.3
308.019	1.32
308.388	1.51
308.757	1.48
309.126	1.33
309.495	1.73
309.863	1.55
310.232	1.43
310.601	1.34
310.969	1.36
311.338	1.33
311.707	1.45
312.075	1.34
312.444	1.44
312.812	1.53
313.181	1.58
313.549	1.39
313.918	1.43
314.286	1.3
314.654	1.3
315.023	1.19
315.391	1.3
315.759	1.31
316.127	1.53
316.496	1.29
316.864	1.36
317.232	1.33
317.6	1.49
317.968	1.26
318.336	1.47
318.704	1.49
319.072	1.43
319.44	1.33
319.808	1.18
320.176	1.18
320.544	1.35
320.912	1.37
321.28	1.27
321.647	1.4
322.015	1.2
322.383	1.14
322.75	1.37
323.118	1.34
323.486	1.61
323.853	1.77
324.221	1.85
324.588	1.72
324.956	1.86
325.323	1.91
325.691	1.98
326.058	1.83
326.426	2.06
326.793	2.17
327.16	2.01
327.528	2.07
327.895	2.05
328.262	1.63
328.629	1.41
328.996	1.34
329.363	1.01
329.731	0.94
330.098	1.18
330.465	1.27
330.832	1.55
331.199	1.94
331.566	2.37
331.932	2.49
332.299	2.47
332.666	2.41
333.033	2.29
333.4	2.14
333.766	2.08
334.133	2
334.5	1.73
334.867	1.55
335.233	1.39
335.6	1.11
335.966	1.01
336.333	1.12
336.699	1.08
337.066	0.98
337.432	1.14
337.799	1.41
338.165	1.39
338.531	1.29
338.898	1.47
339.264	1.65
339.63	1.45
339.996	1.37
340.363	1.56
340.729	1.58
341.095	1.58
341.461	1.68
341.827	1.49
342.193	1.58
342.559	1.51
342.925	1.31
343.291	1.26
343.657	1.38
344.023	1.37
344.388	1.4
344.754	1.32
345.12	1.39
345.486	1.46
345.851	1.45
346.217	1.46
346.583	1.78
346.948	1.71
347.314	1.94
347.679	1.98
348.045	2.01
348.41	2.11
348.776	2.05
349.141	1.66
349.507	1.5
349.872	1.29
350.237	1.11
350.603	1.09
350.968	1.16
351.333	1.11
351.698	1.17
352.063	1.05
352.428	1.2
352.794	1.14
353.159	1.19
353.524	1.48
353.889	1.47
354.254	1.44
354.618	1.69
354.983	1.7
355.348	1.41
355.713	1.36
356.078	1.44
356.443	1.39
356.807	1.39
357.172	1.65
357.537	1.85
357.901	1.84
358.266	1.72
358.63	1.63
358.995	1.35
359.359	1.15
359.724	1.12
360.088	1.3
360.453	1.37
360.817	1.38
361.181	1.42
361.546	1.41
361.91	1.46
362.274	1.47
362.638	1.71
363.003	1.73
363.367	1.75
363.731	1.6
364.095	1.7
364.459	1.52
364.823	1.5
365.187	1.61
365.551	1.66
365.915	1.64
366.279	1.6
366.642	1.61
367.006	1.57
367.37	1.45
367.734	1.27
368.097	1.44
368.461	1.35
368.825	1.38
369.188	1.37
369.552	1.38
369.915	1.08
370.279	1.31
370.642	1.18
371.006	1.33
371.369	1.46
371.732	1.65
372.096	1.52
372.459	1.47
372.822	1.56
373.186	1.51
373.549	1.54
373.912	1.64
374.275	1.64
374.638	1.45
375.001	1.39
375.364	1.24
375.727	1.07
376.09	1
376.453	1
376.816	1.1
377.179	1.09
377.542	1.17
377.904	1.25
378.267	1.37
378.63	1.53
378.993	1.61
379.355	1.63
379.718	1.56
380.08	1.52
380.443	1.39
380.806	1.38
381.168	1.24
381.53	1.25
381.893	1.18
382.255	1.17
382.618	1.3
382.98	1.45
383.342	1.65
383.704	1.78
384.067	1.75
384.429	1.64
384.791	1.67
385.153	1.64
385.515	1.52
385.877	1.59
386.239	1.69
386.601	1.69
386.963	1.57
387.325	1.71
387.687	1.67
388.049	1.63
388.41	1.79
388.772	1.96
389.134	1.87
389.496	1.79
389.857	1.68
390.219	1.64
390.58	1.58
390.942	1.51
391.303	1.62
391.665	1.69
392.026	1.7
392.388	1.74
392.749	1.77
393.111	1.73
393.472	1.74
393.833	1.71
394.194	1.62
394.556	1.61
394.917	1.6
395.278	1.62
395.639	1.71
396	1.79
396.361	1.84
396.722	1.86
397.083	1.78
397.444	1.67
397.805	1.7
398.166	1.65
398.526	1.69
398.887	1.71
399.248	1.62
399.609	1.51
399.969	1.61
400.33	1.71
400.691	1.67
401.051	1.77
401.412	1.83
401.772	1.82
402.133	1.65
402.493	1.82
402.853	1.81
403.214	1.83
403.574	1.8
403.934	1.87
404.295	1.94
404.655	1.89
405.015	1.92
405.375	1.91
405.735	1.88
406.095	1.76
406.455	1.75
406.815	1.65
407.175	1.69
407.535	1.72
407.895	1.68
408.255	1.83
408.615	1.95
408.975	1.96
409.334	1.89
409.694	1.89
410.054	1.84
410.413	1.83
410.773	1.83
411.133	1.9
411.492	1.87
411.852	1.79
412.211	1.77
412.571	1.8
412.93	1.91
413.289	2.09
413.649	2.14
414.008	2
414.367	1.95
414.726	2.01
415.086	1.86
415.445	1.8
415.804	1.92
416.163	1.89
416.522	1.77
416.881	1.77
417.24	1.82
417.599	1.78
417.958	1.82
418.316	1.81
418.675	1.92
419.034	1.92
419.393	2
419.751	2
420.11	2.02
420.469	1.97
420.827	2
421.186	1.93
421.544	1.93
421.903	1.92
422.261	1.93
422.62	1.94
422.978	1.97
423.336	2.03
423.695	2.13
424.053	2.15
424.411	2.15
424.769	2.14
425.128	2.13
425.486	2.06
425.844	2.09
426.202	2.07
426.56	2.06
426.918	2.03
427.276	2.03
427.634	1.96
427.991	1.95
428.349	2.02
428.707	2.05
429.065	2.01
429.423	2.05
429.78	2.1
430.138	2.08
430.495	2.14
430.853	2.12
431.211	2.12
431.568	2.07
431.925	2.08
432.283	2.03
432.64	2.03
432.998	1.98
433.355	1.97
433.712	1.97
434.069	2.03
434.427	2.07
434.784	2.15
435.141	2.18
435.498	2.19
435.855	2.09
436.212	2.11
436.569	2.07
436.926	2.09
437.283	2.13
437.64	2.18
437.996	2.14
438.353	2.12
438.71	2.11
439.067	2.1
439.423	2.07
439.78	2.09
440.137	2.14
440.493	2.13
440.85	2.18
441.206	2.22
441.563	2.27
441.919	2.24
442.275	2.23
442.632	2.15
442.988	2.17
443.344	2.16
443.7	2.13
444.057	2.21
444.413	2.26
444.769	2.21
445.125	2.21
445.481	2.26
445.837	2.24
446.193	2.2
446.549	2.24
446.905	2.27
447.26	2.24
447.616	2.23
447.972	2.25
448.328	2.24
448.683	2.18
449.039	2.19
449.395	2.14
449.75	2.18
450.106	2.19
450.461	2.23
450.817	2.24
451.172	2.38
451.527	2.3
451.883	2.27
452.238	2.28
452.593	2.32
452.949	2.22
453.304	2.26
453.659	2.31
454.014	2.29
454.369	2.28
454.724	2.32
455.079	2.36
455.434	2.38
455.789	2.41
456.144	2.37
456.499	2.38
456.853	2.31
457.208	2.24
457.563	2.23
457.918	2.26
458.272	2.25
458.627	2.24
458.981	2.3
459.336	2.32
459.69	2.32
460.045	2.32
460.399	2.39
460.754	2.38
461.108	2.35
461.462	2.31
461.817	2.27
462.171	2.26
462.525	2.19
462.879	2.2
463.233	2.19
463.587	2.24
463.941	2.22
464.295	2.25
464.649	2.23
465.003	2.35
465.357	2.31
465.711	2.22
466.065	2.29
466.418	2.31
466.772	2.27
467.126	2.25
467.479	2.29
467.833	2.23
468.186	2.25
468.54	2.26
468.893	2.32
469.247	2.34
469.6	2.34
469.954	2.33
470.307	2.29
470.66	2.3
471.013	2.29
471.367	2.28
471.72	2.31
472.073	2.32
472.426	2.28
472.779	2.3
473.132	2.29
473.485	2.27
473.838	2.26
474.191	2.28
474.544	2.31
474.896	2.41
475.249	2.44
475.602	2.42
475.955	2.48
476.307	2.5
476.66	2.44
477.012	2.46
477.365	2.45
477.717	2.36
478.07	2.33
478.422	2.37
478.775	2.28
479.127	2.3
479.479	2.39
479.831	2.42
480.184	2.43
480.536	2.51
480.888	2.54
481.24	2.58
481.592	2.6
481.944	2.58
482.296	2.55
482.648	2.54
483	2.49
483.352	2.5
483.703	2.53
484.055	2.54
484.407	2.54
484.759	2.56
485.11	2.56
485.462	2.54
485.813	2.54
486.165	2.53
486.516	2.56
486.868	2.58
487.219	2.58
487.571	2.59
487.922	2.61
488.273	2.59
488.624	2.56
488.976	2.56
489.327	2.57
489.678	2.59
490.029	2.58
490.38	2.59
490.731	2.59
491.082	2.57
491.433	2.58
491.784	2.58
492.135	2.6
492.485	2.6
492.836	2.62
493.187	2.65
493.537	2.66
493.888	2.65
494.239	2.67
494.589	2.66
494.94	2.67
495.29	2.66
495.641	2.71
495.991	2.68
496.341	2.67
496.692	2.65
497.042	2.7
497.392	2.68
497.742	2.72
498.092	2.73
498.442	2.7
498.793	2.65
499.143	2.67
499.493	2.67
499.842	2.66
500.192	2.7
500.542	2.72
500.892	2.7
501.242	2.65
501.591	2.69
501.941	2.63
502.291	2.64
502.64	2.66
502.99	2.67
503.339	2.7
503.689	2.78
504.038	2.75
504.388	2.74
504.737	2.77
505.086	2.73
505.436	2.73
505.785	2.8
506.134	2.8
506.483	2.83
506.832	2.85
507.181	2.82
507.53	2.81
507.879	2.86
508.228	2.88
508.577	2.84
508.926	2.86
509.275	2.86
509.624	2.85
509.972	2.84
510.321	2.86
510.67	2.85
511.018	2.83
511.367	2.85
511.715	2.86
512.064	2.9
512.412	2.96
512.761	2.99
513.109	2.98
513.457	2.94
513.806	2.94
514.154	2.88
514.502	2.94
514.85	2.96
515.198	2.99
515.546	3.04
515.894	3.07
516.242	3
516.59	3
516.938	3.04
517.286	2.98
517.634	2.97
517.981	3.05
518.329	3.04
518.677	3.05
519.024	3.11
519.372	3.14
519.72	3.14
520.067	3.15
520.415	3.16
520.762	3.15
521.109	3.13
521.457	3.08
521.804	3.14
522.151	3.15
522.498	3.15
522.846	3.21
523.193	3.28
523.54	3.24
523.887	3.22
524.234	3.24
524.581	3.21
524.928	3.23
525.275	3.21
525.621	3.24
525.968	3.3
526.315	3.32
526.662	3.37
527.008	3.41
527.355	3.39
527.701	3.36
528.048	3.35
528.394	3.32
528.741	3.34
529.087	3.34
529.434	3.36
529.78	3.37
530.126	3.4
530.472	3.39
530.819	3.43
531.165	3.43
531.511	3.46
531.857	3.45
532.203	3.45
532.549	3.45
532.895	3.46
533.241	3.48
533.586	3.54
533.932	3.57
534.278	3.56
534.624	3.56
534.969	3.55
535.315	3.52
535.661	3.49
536.006	3.52
536.352	3.55
536.697	3.62
537.042	3.61
537.388	3.61
537.733	3.61
538.078	3.62
538.424	3.57
538.769	3.55
539.114	3.59
539.459	3.61
539.804	3.59
540.149	3.64
540.494	3.69
540.839	3.73
541.184	3.75
541.529	3.8
541.873	3.8
542.218	3.81
542.563	3.81
542.908	3.84
543.252	3.8
543.597	3.8
543.941	3.81
544.286	3.81
544.63	3.82
544.975	3.82
545.319	3.87
545.663	3.86
546.007	3.85
546.352	3.86
546.696	3.9
547.04	3.88
547.384	3.94
547.728	3.97
548.072	4
548.416	4.02
548.76	4.04
549.104	4
549.448	3.91
549.791	3.88
550.135	3.89
550.479	3.92
550.823	3.95
551.166	4.09
551.51	4.11
551.853	4.05
552.197	4.06
552.54	4.09
552.883	4.11
553.227	4.1
553.57	4.2
553.913	4.19
554.257	4.16
554.6	4.15
554.943	4.21
555.286	4.27
555.629	4.28
555.972	4.38
556.315	4.34
556.658	4.3
557.001	4.17
557.343	4.23
557.686	4.25
558.029	4.29
558.371	4.37
558.714	4.4
559.057	4.39
559.399	4.3
559.742	4.37
560.084	4.4
560.427	4.5
560.769	4.5
561.111	4.53
561.453	4.51
561.796	4.45
562.138	4.4
562.48	4.39
562.822	4.39
563.164	4.42
563.506	4.46
563.848	4.54
564.19	4.58
564.532	4.58
564.874	4.56
565.215	4.55
565.557	4.59
565.899	4.57
566.24	4.6
566.582	4.64
566.924	4.62
567.265	4.58
567.606	4.6
567.948	4.59
568.289	4.54
568.631	4.62
568.972	4.6
569.313	4.66
569.654	4.71
569.995	4.69
570.336	4.68
570.677	4.75
571.018	4.74
571.359	4.75
571.7	4.84
572.041	4.87
572.382	4.88
572.723	4.87
573.064	4.97
573.404	4.93
573.745	4.94
574.085	4.87
574.426	4.88
574.766	4.87
575.107	4.82
575.447	4.78
575.788	4.84
576.128	4.88
576.468	4.88
576.808	5
577.149	5.04
577.489	5.06
577.829	5.07
578.169	5.03
578.509	5.03
578.849	5.06
579.189	5.03
579.529	5
579.868	5.06
580.208	5.04
580.548	5.11
580.887	5.09
581.227	5.18
581.567	5.1
581.906	5.13
582.246	5.16
582.585	5.3
582.925	5.3
583.264	5.46
583.603	5.46
583.942	5.41
584.282	5.31
584.621	5.37
584.96	5.31
585.299	5.37
585.638	5.42
585.977	5.53
586.316	5.54
586.655	5.5
586.994	5.56
587.332	5.52
587.671	5.51
588.01	5.44
588.348	5.52
588.687	5.46
589.026	5.54
589.364	5.43
589.703	5.55
590.041	5.59
590.379	5.6
590.718	5.61
591.056	5.73
591.394	5.64
591.732	5.66
592.07	5.71
592.409	5.75
592.747	5.71
593.085	5.78
593.423	5.75
593.76	5.84
594.098	5.83
594.436	5.9
594.774	5.94
595.112	5.96
595.449	5.89
595.787	6
596.124	6.02
596.462	6.08
596.799	6.1
597.137	6.19
597.474	6.15
597.812	6.11
598.149	6.08
598.486	6.1
598.823	6.09
599.16	6.13
599.498	6.26
599.835	6.37
600.172	6.4
600.509	6.42
600.845	6.5
601.182	6.5
601.519	6.51
601.856	6.55
602.193	6.59
602.529	6.5
602.866	6.53
603.202	6.6
603.539	6.65
603.875	6.66
604.212	6.7
604.548	6.69
604.885	6.64
605.221	6.63
605.557	6.65
605.893	6.72
606.23	6.76
606.566	6.74
606.902	6.8
607.238	6.85
607.574	6.84
607.91	6.86
608.245	6.99
608.581	7.02
608.917	7.1
609.253	7.07
609.588	7.05
609.924	7.03
610.26	7.03
610.595	7.02
610.931	7.09
611.266	7.19
611.601	7.24
611.937	7.24
612.272	7.3
612.607	7.24
612.942	7.23
613.278	7.24
613.613	7.36
613.948	7.27
614.283	7.38
614.618	7.39
614.953	7.49
615.287	7.36
615.622	7.42
615.957	7.44
616.292	7.41
616.626	7.38
616.961	7.47
617.295	7.63
617.63	7.67
617.964	7.58
618.299	7.59
618.633	7.68
618.968	7.6
619.302	7.6
619.636	7.73
619.97	7.71
620.304	7.7
620.638	7.7
620.972	7.71
621.306	7.72
621.64	7.75
621.974	7.78
622.308	7.67
622.642	7.69
622.976	7.72
623.309	7.7
623.643	7.57
623.977	7.73
624.31	7.79
624.644	7.89
624.977	7.98
625.31	8.19
625.644	8.28
625.977	8.29
626.31	8.31
626.643	8.34
626.977	8.29
627.31	8.23
627.643	8.28
627.976	8.21
628.309	8.11
628.642	8.15
628.974	8.23
629.307	8.13
629.64	8.26
629.973	8.42
630.305	8.34
630.638	8.28
630.971	8.31
631.303	8.31
631.636	8.25
631.968	8.47
632.3	8.57
632.633	8.59
632.965	8.61
633.297	8.62
633.629	8.52
633.961	8.45
634.293	8.5
634.625	8.47
634.957	8.45
635.289	8.54
635.621	8.61
635.953	8.67
636.285	8.81
636.617	9.02
636.948	8.99
637.28	8.98
637.611	9.05
637.943	8.87
638.274	8.84
638.606	8.86
638.937	8.93
639.269	9.01
639.6	9.16
639.931	9.23
640.262	9.22
640.593	9.3
640.924	9.33
641.255	9.32
641.586	9.04
641.917	9.02
642.248	8.85
642.579	8.83
642.91	8.87
643.24	9.17
643.571	9.18
643.902	9.28
644.232	9.12
644.563	9.21
644.893	9.09
645.224	9.2
645.554	9.01
645.884	9.21
646.215	9.08
646.545	9.12
646.875	9.1
647.205	9.38
647.535	9.26
647.865	9.18
648.195	9.06
648.525	9.15
648.855	9.22
649.185	9.29
649.515	9.42
649.844	9.57
650.174	9.43
650.504	9.29
650.833	9.27
651.163	9.39
651.492	9.53
651.822	9.69
652.151	9.87
652.48	9.91
652.81	9.82
653.139	9.83
653.468	9.74
653.797	9.55
654.126	9.45
654.455	9.46
654.784	9.42
655.113	9.51
655.442	9.67
655.771	9.83
656.099	9.85
656.428	9.84
656.757	9.67
657.085	9.57
657.414	9.65
657.742	9.72
658.071	9.83
658.399	9.92
658.728	10.13
659.056	10.16
659.384	10.17
659.712	10.16
660.04	10.15
660.369	9.98
660.697	9.89
661.025	9.9
661.353	9.83
661.68	10.01
662.008	10.13
662.336	10.14
662.664	10.21
662.991	10.18
663.319	10.08
663.647	10.1
663.974	10.15
664.302	10.08
664.629	10.17
664.956	10.16
665.284	10.2
665.611	10.22
665.938	10.24
666.265	10.22
666.593	10.16
666.92	10.17
667.247	10.19
667.574	10.16
667.9	10.25
668.227	10.34
668.554	10.24
668.881	10.13
669.208	10
669.534	9.83
669.861	9.86
670.187	9.9
670.514	10.08
670.84	10.21
671.167	10.23
671.493	10.4
671.819	10.53
672.146	10.33
672.472	10.58
672.798	10.71
673.124	10.54
673.45	10.42
673.776	10.63
674.102	10.37
674.428	10.3
674.754	10.31
675.079	10.23
675.405	10.34
675.731	10.61
676.056	10.78
676.382	10.9
676.707	11.09
677.033	10.76
677.358	10.6
677.684	10.46
678.009	10.77
678.334	10.85
678.659	11.23
678.985	11.25
679.31	11.39
679.635	11.28
679.96	11.18
680.285	10.98
680.609	11.03
680.934	10.86
681.259	10.9
681.584	10.95
681.908	11.19
682.233	11.21
682.558	11.39
682.882	11.18
683.207	11.17
683.531	11.16
683.855	11.26
684.18	11.2
684.504	11.35
684.828	11.42
685.152	11.14
685.476	11.09
685.8	11.25
686.124	11.28
686.448	11.32
686.772	11.51
687.096	11.56
687.42	11.5
687.744	11.43
688.067	11.37
688.391	11.2
688.714	11.21
689.038	11.19
689.361	11.24
689.685	11.41
690.008	11.52
690.331	11.36
690.655	11.48
690.978	11.68
691.301	11.7
691.624	11.79
691.947	12.1
692.27	12.18
692.593	12.09
692.916	12.31
693.239	12.47
693.561	12.51
693.884	12.54
694.207	12.62
694.529	12.39
694.852	12.63
695.174	12.68
695.497	12.88
695.819	13.08
696.142	13.22
696.464	13.23
696.786	13.45
697.108	13.41
697.43	13.31
697.753	13.63
698.075	13.46
698.397	13.62
698.718	13.8
699.04	13.89
699.362	13.79
699.684	14.04
700.006	14.09
700.327	14.19
700.649	14.39
700.97	14.43
701.292	14.59
701.613	14.46
701.935	14.41
702.256	14.17
702.577	14.42
702.898	14.34
703.22	14.28
703.541	14.32
703.862	14.55
704.183	14.34
704.504	14.4
704.825	14.8
705.145	14.87
705.466	14.91
705.787	15.13
706.108	15.63
706.428	15.62
706.749	15.73
707.069	15.74
707.39	15.87
707.71	15.44
708.03	15.25
708.351	15.31
708.671	15.31
708.991	15.69
709.311	15.87
709.631	16.2
709.951	15.96
710.271	16.23
710.591	15.97
710.911	16.11
711.231	16.01
711.551	16.65
711.87	16.85
712.19	16.78
712.51	16.53
712.829	17.03
713.149	16.66
713.468	16.65
713.787	17.01
714.107	17.46
714.426	17.01
714.745	17.04
715.064	17.05
715.383	16.86
715.702	17.05
716.021	17
716.34	17.48
716.659	17.68
716.978	17.84
717.297	17.58
717.615	18.15
717.934	18.12
718.253	17.98
718.571	17.9
718.89	17.97
719.208	17.59
719.527	17.36
719.845	17.46
720.163	17.69
720.481	17.95
720.8	18.22
721.118	18.33
721.436	18.66
721.754	18.67
722.072	18.49
722.39	18.4
722.707	18.48
723.025	18.01
723.343	18.12
723.661	18.49
723.978	18.63
724.296	19.06
724.613	19.27
724.931	19.25
725.248	19.4
725.565	19.65
725.883	19.74
726.2	19.85
726.517	19.88
726.834	19.52
727.151	19.55
727.468	19.28
727.785	19.11
728.102	19.51
728.419	19.51
728.736	19.26
729.052	19.12
729.369	19.76
729.686	19.72
730.002	19.86
730.319	20.02
730.635	20.49
730.951	20.34
731.268	20.51
731.584	20.65
731.9	20.84
732.216	20.33
732.533	20.03
732.849	19.92
733.165	19.94
733.481	19.97
733.796	19.96
734.112	20.11
734.428	20.07
734.744	19.8
735.059	19.91
735.375	20.47
735.691	20.29
736.006	20.52
736.322	20.76
736.637	20.59
736.952	20.68
737.268	21.14
737.583	21.23
737.898	21.25
738.213	21.03
738.528	21.17
738.843	21.08
739.158	21.15
739.473	21.2
739.788	21.79
740.102	21.85
740.417	21.67
740.732	21.82
741.046	21.83
741.361	21.74
741.675	21.13
741.99	21.25
742.304	21.01
742.618	21.47
742.933	21.33
743.247	21.8
743.561	22.5
743.875	22.65
744.189	22.35
744.503	22.48
744.817	22.77
745.131	22.22
745.445	21.81
745.758	21.93
746.072	21.81
746.386	21.4
746.699	21.3
747.013	21.04
747.326	21.36
747.64	21.21
747.953	21.44
748.266	22.02
748.58	22.55
748.893	22.29
749.206	23.08
749.519	22.73
749.832	21.75
750.145	21.22
750.458	21.08
750.771	20.28
751.083	20.68
751.396	21.58
751.709	22.08
752.021	21.82
752.334	21.92
752.646	22.2
752.959	22.22
753.271	22.05
753.584	22.82
753.896	23.08
754.208	22.22
754.52	22.27
754.832	22.16
755.144	22.06
755.456	21.8
755.768	22.75
756.08	22.47
756.392	22.96
756.704	22.86
757.015	23.09
757.327	22.81
757.638	23.2
757.95	23.24
758.261	23.27
758.573	23.54
758.884	23.25
759.195	23.52
759.507	23.64
759.818	23.45
760.129	23.1
760.44	23.64
760.751	22.88
761.062	22.92
761.373	22.71
761.684	22.68
761.994	22.67
762.305	22.84
762.616	22.26
762.926	22.6
763.237	22.07
763.547	22.26
763.858	22.79
764.168	22.85
764.478	22.54
764.789	23.03
765.099	22.37
765.409	22.11
765.719	22.59
766.029	22.89
766.339	22.77
766.649	23.48
766.959	23.55
767.269	22.73
767.578	22.58
767.888	23.12
768.198	22.97
768.507	22.7
768.817	23.29
769.126	23.55
769.435	22.62
769.745	22.21
770.054	22.17
770.363	22.46
770.672	21.81
770.981	22.76
771.29	22.85
771.599	22.48
771.908	20.48
772.217	22.41
772.526	22.51
772.835	22.96
773.143	23.02
773.452	24.17
773.76	22.75
774.069	22.81
774.377	22.21
774.686	22.87
774.994	23.21
775.302	23.32
775.611	22.49
775.919	22.64
776.227	22.69
776.535	22.42
776.843	22.78
777.151	23.75
777.459	24.84
777.766	23.39
778.074	24.82
778.382	24.07
778.689	22.82
778.997	22.47
779.304	24.07
779.612	22.09
779.919	21.19
780.227	20.91
780.534	19.49
780.841	19.7
781.148	21.2
781.455	22.71
781.762	23.78
782.069	24.94
782.376	23.53
782.683	22.54
782.99	22.81
783.296	22.11
783.603	20.74
783.91	22.62
784.216	24.23
784.523	22.96
784.829	25.98
785.136	27.15
785.442	24.79
785.748	24.53
786.054	24.91
786.36	22.33
786.667	21.96
786.973	22.44
787.278	22.33
787.584	22.5
787.89	22.06
788.196	22.99
788.502	24.01
788.807	23.79
789.113	24.26
789.418	25.31
789.724	24.71
790.029	23.62
790.335	22.85
790.64	23.25
790.945	21.86
791.25	22.05
791.556	22.51
791.861	23.1
792.166	22.8
792.471	23.48
792.775	22.07
793.08	21.35
793.385	21.81
793.69	21
793.994	21.95
794.299	23.22
794.603	25.45
794.908	24.75
795.212	25.02
795.517	24.11
795.821	25.18
796.125	23.65
796.429	23.72
796.733	22.95
797.037	23.1
797.341	22.37
797.645	23.43
797.949	24.39
798.253	25.38
798.557	24.15
798.86	23.64
799.164	23.66
799.468	22.47
799.771	20.75
800.074	22.1
800.378	24.32
800.681	24.77
800.984	25.75
801.288	27.71
801.591	28.33
801.894	25.97
802.197	24.46
802.5	21.59
802.803	22.66
803.105	21.14
803.408	21.73
803.711	23.05
804.014	26.01
804.316	22.88
804.619	24.59
804.921	22.22
805.224	22.52
805.526	21.53
805.828	24.15
806.13	22.09
806.433	24.05
806.735	22.08
807.037	20.82
807.339	20.75
807.641	22.23
807.942	23.1
808.244	22.89
808.546	24.76
808.848	24.18
809.149	23.64
809.451	23.95
809.752	23.71
810.054	23.75
810.355	24.38
810.656	24.06
810.958	21.24
811.259	23
811.56	21.53
811.861	19.58
812.162	20.75
812.463	21.53
812.764	19.27
813.065	19.61
813.365	20.17
813.666	17.07
813.967	17.71
814.267	18.67
814.568	19.93
814.868	19.71
815.169	21.27
815.469	21.44
815.769	24.85
816.069	24.02
816.37	26.51
816.67	27.21
816.97	27.6
817.27	25.67
817.57	27
817.869	25.26
818.169	25.1
818.469	24.8
818.768	23.62
819.068	22.5
819.368	23
819.667	23.04
819.966	23.31
820.266	23.42
820.565	25
820.864	25.08
821.163	25.73
821.463	25.13
821.762	26.32
822.06	25.61
822.359	25.32
822.658	24.63
822.957	25.2
823.256	24.64
823.554	24.47
823.853	24.19
824.152	24.07
824.45	23.92
824.748	23.42
825.047	22.86
825.345	22.5
825.643	21.91
825.941	21.39
826.239	22.43
826.538	22.48
826.836	23.03
827.133	24.44
827.431	25.17
827.729	24.61
828.027	25.15
828.324	25.22
828.622	24.67
828.92	23.56
829.217	23.31
829.514	22.98
829.812	21.95
830.109	22.59
830.406	23.62
830.703	24.32
831.001	25.07
831.298	26.9
831.595	25.36
831.891	23.5
832.188	23.5
832.485	22.18
832.782	20.92
833.078	22.51
833.375	23.47
833.672	21.57
833.968	22.21
834.264	22.89
834.561	22.57
834.857	22.12
835.153	24.7
835.449	24.55
835.746	24.29
836.042	24.8
836.338	25.17
836.633	23.01
836.929	21.49
837.225	20.96
837.521	19.83
837.816	19.11
838.112	17.71
838.408	17.26
838.703	14.41
838.998	15.1
839.294	11.93
839.589	16.37
839.884	18.21
840.179	22.32
840.474	19.68
840.77	20.09
841.064	17.2
841.359	21.43
841.654	24.47
841.949	23.14
842.244	25.35
842.538	28.65
842.833	29.49
843.127	26.94
843.422	28.88
843.716	27.02
844.011	24.85
844.305	20.7
844.599	17.95
844.893	19.23
845.187	22.03
845.481	25.93
845.775	30.44
846.069	30.89
846.363	30.02
846.657	32.95
846.95	25.21
847.244	24.73
847.537	26
847.831	24.89
848.124	19.31
848.418	19.71
848.711	9.26
849.004	8.47
849.297	5.01
849.591	0.62
849.884	-11.6
850.177	-2.83
850.47	-5.56
850.762	6.97
851.055	21.86
851.348	34.74
851.641	31.1
851.933	35.66
852.226	27.43
852.518	24.95
852.811	19.04
853.103	21.31
853.395	12.29
853.687	20.81
853.98	26.95
854.272	22.78
854.564	15.49
854.856	22.75
855.148	15.32
855.439	7.12
855.731	-3.78
856.023	-4.79
856.314	-7.33
856.606	0.61
856.898	-8.31
857.189	6.77
857.48	2.29
857.772	-8.36
858.063	-17.29
858.354	-1.56
858.645	3.91
858.936	19.72
859.227	39.74
859.518	48.7
859.809	38.15
860.1	35.16
860.391	33.28
860.681	25.11
860.972	12.32
861.262	27.34
861.553	42.3
861.843	33.26
862.134	27.56
862.424	32.09
862.714	29.68
863.004	15.85
863.294	16.29
863.584	10.54
863.874	-14.64
864.164	-20.75
864.454	-34.92
864.744	-43.53
865.034	4.62
865.323	26.55
865.613	33.47
865.902	69.61
866.192	60.18
866.481	57.75
866.77	54.95
867.06	60.02
867.349	26.55
867.638	28.71
867.927	8.73
868.216	15.6
868.505	-6.55
868.794	13.72
869.082	9.17
869.371	13.75
869.66	-18.26
869.948	27.39
870.237	30.6
870.525	37.1
870.814	4.96
871.102	40.62
871.39	28.66
871.678	-13.5
871.967	-26.53
872.255	11.7
872.543	-4.42
872.831	-26.42
873.118	26.59
873.406	48.43
873.694	-29.95
873.982	-40.23
874.269	0.29
874.557	-8.38
874.844	7.78
875.132	30.4
875.419	58.85
